[Header]
Application Name	LabSolutions
Version	5.73
Data File Name	C:\Users\Public\DADOS\Ricardo borges\RMBorges\26.02.25\SCIFFEE 1.lcd
Output Date	27/02/2025
Output Time	06:25:54

[File Information]
Type	Data File
Generated	27/02/2025 05:35:25
Generated by	System Administrator
Modified	27/02/2025 06:25:53
Modified by	System Administrator

[Sample Information]
Operator Name	System Administrator
Acquired	27/02/2025 05:35:51
Sample Type	0:Unknown
Level	0
Sample Name	SCIFFEE 1
Sample ID	SCIFFEE 1
ISTD Amount1	1
ISTD Amount2	1
ISTD Amount3	1
ISTD Amount4	1
ISTD Amount5	1
ISTD Amount6	1
ISTD Amount7	1
ISTD Amount8	1
ISTD Amount9	1
ISTD Amount10	1
ISTD Amount11	1
ISTD Amount12	1
ISTD Amount13	1
ISTD Amount14	1
ISTD Amount15	1
ISTD Amount16	1
ISTD Amount17	1
ISTD Amount18	1
ISTD Amount19	1
ISTD Amount20	1
ISTD Amount21	1
ISTD Amount22	1
ISTD Amount23	1
ISTD Amount24	1
ISTD Amount25	1
ISTD Amount26	1
ISTD Amount27	1
ISTD Amount28	1
ISTD Amount29	1
ISTD Amount30	1
ISTD Amount31	1
ISTD Amount32	1
Sample Amount	1
Dilution Factor	1
Vial#	26
Injection Volume	10

[Original Files]
Data File	C:\Users\Public\DADOS\Ricardo borges\RMBorges\26.02.25\SCIFFEE 1.lcd
Method File	C:\Users\Public\MÉTODOS\MÉTODOS HPLC AUTOMÁTICO\RICARDO BORGES\RMBorges\sciffee\experimental 1 - pool.lcm
Batch File	C:\Users\Public\DADOS\Ricardo borges\RMBorges\26.02.25\BATCH_RM_MIX POOL_26.02.2025.lcb
Report Format File	C:\LabSolutions\System\Default.lsr

[File Description]


[Configuration]
Instrument Name	HPLC analítico (automático)
Instrument #	1
Line #	1
# of Detectors	1
Detector ID	PDA
Detector Name	PDA
# of Channels	1

[Peak Table(PDA-Ch1)]
# of Peaks	88
Peak#	R.Time	I.Time	F.Time	Area	Height	A/H	Conc.	Mark	ID#	Name	k'	Plate #	Plate Ht.	Tailing	Resolution	Sep.Factor	Area Ratio	Height Ratio	Conc. %	Norm Conc.
1	1,664	1,269	1,803	2713053	372545	7,282	0,000	   			0,000	1050	142,872	0,000	0,000	0,000	0	0	0,000	0,000
2	1,858	1,803	2,005	469275	70187	6,686	0,000	 V 			0,117	1218	123,188	0,000	0,927	0,000	0	0	0,000	0,000
3	2,169	2,005	2,432	568384	50751	11,199	0,000	 V 			0,303	701	213,832	0,000	1,149	2,601	0	0	0,000	0,000
4	2,630	2,432	2,795	403626	48579	8,309	0,000	 V 			0,580	2546	58,919	0,000	1,720	1,914	0	0	0,000	0,000
5	2,896	2,795	3,093	115282	8210	14,041	0,000	 V 			0,740	280	536,017	0,000	0,592	1,276	0	0	0,000	0,000
6	3,280	3,093	3,467	130783	7805	16,757	0,000	 V 			0,971	530	283,110	0,000	0,607	1,311	0	0	0,000	0,000
7	3,517	3,467	3,627	42719	5915	7,222	0,000	 V 			1,113	1193	125,766	0,000	0,486	1,147	0	0	0,000	0,000
8	3,795	3,627	4,043	95808	5395	17,758	0,000	 V 			1,280	804	186,648	0,000	0,589	1,150	0	0	0,000	0,000
9	4,320	4,043	4,736	164527	6319	26,036	0,000	 V 			1,596	425	352,877	0,000	0,765	1,247	0	0	0,000	0,000
10	4,821	4,736	4,917	24095	2253	10,696	0,000	 V 			1,897	10	15199,520	0,000	0,144	1,189	0	0	0,000	0,000
11	5,107	4,917	5,344	62544	2857	21,894	0,000	 V 			2,068	369	406,739	0,000	0,079	1,090	0	0	0,000	0,000
12	5,502	5,344	5,589	31103	2215	14,039	0,000	 V 			2,306	133	1127,925	0,000	0,266	1,115	0	0	0,000	0,000
13	5,781	5,589	5,835	34341	2597	13,221	0,000	 V 			2,474	103	1451,980	0,000	0,133	1,073	0	0	0,000	0,000
14	6,045	5,835	6,229	199673	14244	14,018	0,000	 V 			2,632	3533	42,456	0,000	0,196	1,064	0	0	0,000	0,000
15	6,422	6,229	6,699	331095	23948	13,826	0,000	 V 			2,859	5129	29,245	0,000	0,986	1,086	0	0	0,000	0,000
16	6,885	6,699	7,019	69362	3794	18,284	0,000	 V 			3,137	105	1423,661	0,000	0,304	1,097	0	0	0,000	0,000
17	7,258	7,019	7,477	146118	6286	23,246	0,000	 V 			3,361	342	438,846	0,000	0,175	1,071	0	0	0,000	0,000
18	7,642	7,477	7,915	155825	7020	22,199	0,000	 V 			3,592	586	256,126	0,000	0,271	1,069	0	0	0,000	0,000
19	8,218	7,915	8,757	505506	16057	31,482	0,000	 V 			3,938	1915	78,341	0,000	0,572	1,096	0	0	0,000	0,000
20	9,033	8,757	9,440	445127	20176	22,062	0,000	 V 			4,428	5494	27,301	0,000	1,316	1,124	0	0	0,000	0,000
21	9,689	9,440	9,835	257831	14959	17,235	0,000	 V 			4,822	3716	40,368	0,000	1,169	1,089	0	0	0,000	0,000
22	9,867	9,835	10,197	192375	10622	18,111	0,000	 V 			4,929	14	10670,361	0,000	0,032	1,022	0	0	0,000	0,000
23	10,515	10,197	10,784	819547	53847	15,220	0,000	 V 			5,318	12847	11,676	0,000	0,119	1,079	0	0	0,000	0,000
24	10,841	10,784	10,933	82492	9497	8,686	0,000	 V 			5,514	131	1144,255	0,000	0,157	1,037	0	0	0,000	0,000
25	11,179	10,933	13,013	5311994	380068	13,976	0,000	SV 			5,717	21975	6,826	1,200	0,165	1,037	0	0	0,000	0,000
26	11,866	11,733	11,925	2147	258	8,319	0,000	T  			6,130	59873	2,505	0,000	2,773	1,072	0	0	0,000	0,000
27	12,225	11,925	12,395	82807	7210	11,485	0,000	TV 			6,346	24496	6,123	0,000	1,416	1,035	0	0	0,000	0,000
28	12,651	12,395	12,683	52660	3650	14,428	0,000	TV 			6,601	1601	93,671	0,000	0,540	1,040	0	0	0,000	0,000
29	12,821	12,683	13,013	77170	7278	10,603	0,000	TV 			6,704	24901	6,024	0,000	0,215	1,016	0	0	0,000	0,000
30	13,266	13,013	14,891	5817805	272895	21,319	0,000	SV 			6,971	15630	9,597	0,000	1,187	1,040	0	0	0,000	0,000
31	14,294	14,144	14,453	38655	4420	8,745	0,000	T  			7,589	52048	2,882	1,025	3,045	1,089	0	0	0,000	0,000
32	14,608	14,453	14,891	48930	4609	10,616	0,000	T  			7,778	44536	3,368	1,459	1,191	1,025	0	0	0,000	0,000
33	15,173	14,891	16,896	6049340	384693	15,725	0,000	SV 			8,117	40425	3,711	2,101	1,953	1,044	0	0	0,000	0,000
34	15,662	15,563	15,915	41124	4951	8,306	0,000	T  			8,411	70486	2,128	1,630	1,817	1,036	0	0	0,000	0,000
35	16,255	15,979	16,565	50703	2923	17,347	0,000	T  			8,767	17583	8,531	1,065	1,634	1,042	0	0	0,000	0,000
36	16,754	16,565	16,896	48666	5428	8,966	0,000	T  			9,067	69085	2,171	0,928	1,338	1,034	0	0	0,000	0,000
37	17,140	16,896	17,419	2172818	159391	13,632	0,000	 V 			9,299	37982	3,949	0,000	1,274	1,026	0	0	0,000	0,000
38	17,578	17,419	17,675	361920	27830	13,005	0,000	 V 			9,562	7905	18,976	0,000	0,765	1,028	0	0	0,000	0,000
39	17,858	17,675	18,155	1219764	84551	14,426	0,000	 V 			9,730	37852	3,963	0,000	0,484	1,018	0	0	0,000	0,000
40	18,239	18,155	18,603	395892	15785	25,080	0,000	 V 			9,959	162	928,707	0,000	0,125	1,024	0	0	0,000	0,000
41	18,832	18,603	18,976	404389	21921	18,447	0,000	 V 			10,315	6673	22,478	0,000	0,178	1,036	0	0	0,000	0,000
42	19,190	18,976	19,499	729497	35999	20,265	0,000	 V 			10,531	19574	7,663	0,000	0,488	1,021	0	0	0,000	0,000
43	19,681	19,499	19,787	367104	26278	13,970	0,000	 V 			10,826	12167	12,329	0,000	0,778	1,028	0	0	0,000	0,000
44	19,931	19,787	20,181	552870	34155	16,187	0,000	 V 			10,976	23287	6,441	0,000	0,404	1,014	0	0	0,000	0,000
45	20,386	20,181	20,736	655339	35894	18,258	0,000	 V 			11,249	38909	3,855	0,000	0,973	1,025	0	0	0,000	0,000
46	20,844	20,736	20,917	136952	12662	10,816	0,000	 V 			11,524	53	2822,420	0,000	0,077	1,024	0	0	0,000	0,000
47	21,078	20,917	21,227	249501	14563	17,133	0,000	 V 			11,665	3105	48,310	0,000	0,036	1,012	0	0	0,000	0,000
48	21,599	21,227	22,005	1644619	102295	16,077	0,000	 V 			11,978	59282	2,530	0,000	0,557	1,027	0	0	0,000	0,000
49	22,092	22,005	22,240	163061	11873	13,733	0,000	 V 			12,274	66	2257,135	0,000	0,088	1,025	0	0	0,000	0,000
50	22,467	22,240	22,581	237766	12355	19,245	0,000	 V 			12,500	1982	75,674	0,000	0,058	1,018	0	0	0,000	0,000
51	22,775	22,581	23,232	675135	35948	18,781	0,000	 V 			12,685	56064	2,675	0,000	0,256	1,015	0	0	0,000	0,000
52	23,416	23,232	23,627	253403	11814	21,449	0,000	 V 			13,070	2934	51,124	0,000	0,606	1,030	0	0	0,000	0,000
53	23,763	23,627	23,915	170525	10830	15,746	0,000	 V 			13,279	5720	26,224	0,000	0,233	1,016	0	0	0,000	0,000
54	24,133	23,915	24,288	278658	15509	17,967	0,000	 V 			13,501	17397	8,622	0,000	0,372	1,017	0	0	0,000	0,000
55	24,363	24,288	24,544	154002	11293	13,638	0,000	 V 			13,639	2103	71,329	0,000	0,161	1,010	0	0	0,000	0,000
56	24,658	24,544	24,843	147785	9029	16,368	0,000	 V 			13,816	3777	39,713	0,000	0,158	1,013	0	0	0,000	0,000
57	24,912	24,843	25,045	86828	7313	11,873	0,000	 V 			13,969	241	621,738	0,000	0,063	1,011	0	0	0,000	0,000
58	25,205	25,045	25,323	117638	7252	16,222	0,000	 V 			14,145	660	227,321	0,000	0,057	1,013	0	0	0,000	0,000
59	25,524	25,323	25,621	154440	9951	15,520	0,000	 V 			14,337	8014	18,716	0,000	0,126	1,014	0	0	0,000	0,000
60	25,909	25,621	26,240	439312	19639	22,369	0,000	 V 			14,568	19424	7,722	0,000	0,409	1,016	0	0	0,000	0,000
61	26,376	26,240	26,539	119983	7288	16,463	0,000	 V 			14,849	4990	30,058	0,000	0,417	1,019	0	0	0,000	0,000
62	26,689	26,539	26,784	93620	6609	14,165	0,000	 V 			15,037	1632	91,911	0,000	0,151	1,013	0	0	0,000	0,000
63	26,928	26,784	27,061	110500	7062	15,647	0,000	 V 			15,180	3875	38,705	0,000	0,109	1,010	0	0	0,000	0,000
64	27,189	27,061	27,595	174155	6368	27,347	0,000	 V 			15,337	305	492,088	0,000	0,066	1,010	0	0	0,000	0,000
65	27,680	27,595	27,819	56908	4351	13,079	0,000	 V 			15,632	26	5667,053	0,000	0,035	1,019	0	0	0,000	0,000
66	28,216	27,819	28,491	161047	4348	37,038	0,000	 V 			15,954	15	9849,363	0,000	0,021	1,021	0	0	0,000	0,000
67	28,630	28,491	29,077	105193	3657	28,765	0,000	 V 			16,203	1998	75,062	0,000	0,026	1,016	0	0	0,000	0,000
68	29,335	29,077	29,536	66342	2875	23,078	0,000	 V 			16,627	11789	12,724	0,000	0,387	1,026	0	0	0,000	0,000
69	29,701	29,536	29,792	29932	2070	14,459	0,000	 V 			16,847	5394	27,808	0,000	0,271	1,013	0	0	0,000	0,000
70	29,872	29,792	30,069	27346	1867	14,644	0,000	 V 			16,949	349	429,443	0,000	0,043	1,006	0	0	0,000	0,000
71	30,162	30,069	30,400	22586	1294	17,448	0,000	 V 			17,124	401	373,632	0,000	0,047	1,010	0	0	0,000	0,000
72	30,687	30,400	30,859	34730	1730	20,074	0,000	 V 			17,439	36566	4,102	0,000	0,158	1,018	0	0	0,000	0,000
73	31,049	30,859	31,435	41009	2565	15,990	0,000	 V 			17,656	101783	1,474	0,000	0,701	1,012	0	0	0,000	0,000
74	31,445	31,435	31,691	2668	356	7,499	0,000	 V 			17,895	0	0,000	0,000	0,000	1,013	0	0	0,000	0,000
75	34,051	32,715	34,101	357994	7310	48,975	0,000	   			19,460	8248	18,187	0,000	0,000	1,088	0	0	0,000	0,000
76	34,227	34,101	34,293	87476	10453	8,368	0,000	 V 			19,566	222921	0,673	0,000	0,196	1,005	0	0	0,000	0,000
77	34,335	34,293	34,400	48224	9479	5,087	0,000	 V 			19,631	266321	0,563	0,000	0,391	1,003	0	0	0,000	0,000
78	34,528	34,400	34,571	59128	5824	10,152	0,000	 V 			19,747	11382	13,178	0,000	0,247	1,006	0	0	0,000	0,000
79	35,068	34,571	35,413	1047123	120600	8,683	0,000	 V 			20,071	741637	0,202	0,000	0,741	1,016	0	0	0,000	0,000
80	35,488	35,413	35,563	144900	21045	6,885	0,000	 V 			20,324	232516	0,645	0,000	1,836	1,013	0	0	0,000	0,000
81	35,594	35,563	35,733	112659	14878	7,572	0,000	 V 			20,387	104365	1,437	0,000	0,289	1,003	0	0	0,000	0,000
82	35,849	35,733	35,989	134009	10505	12,757	0,000	 V 			20,541	52011	2,884	0,000	0,477	1,008	0	0	0,000	0,000
83	36,037	35,989	36,096	43233	6955	6,216	0,000	 V 			20,654	3210	46,736	0,000	0,118	1,005	0	0	0,000	0,000
84	36,335	36,096	36,469	146090	7862	18,581	0,000	 V 			20,833	17028	8,809	0,000	0,163	1,009	0	0	0,000	0,000
85	36,784	36,469	36,885	98570	3869	25,476	0,000	 V 			21,102	3621	41,426	0,000	0,252	1,013	0	0	0,000	0,000
86	37,049	36,885	37,152	38910	3117	12,485	0,000	 V 			21,262	112221	1,337	0,000	0,184	1,008	0	0	0,000	0,000
87	37,232	37,152	37,376	10933	1288	8,489	0,000	 V 			21,372	5318	28,206	0,000	0,148	1,005	0	0	0,000	0,000
88	38,921	38,656	39,989	1048926	36946	28,390	0,000	   			22,386	340408	0,441	2,864	1,462	1,047	0	0	0,000	0,000

[Compound Results(PDA)]
# of IDs	0

[PDA Multi Chromatogram(Ch1)]
# of Points	      4689
Interval(msec)	640
Start Time(min)	0
End Time(min)	50,0053
Intensity Units	mAU
Intensity Multiplier	1
Type	MultiChrom
Wavelength(nm)	254
Bandwidth(nm)	4
R.Time (min)	Intensity
0,00000	0
0,01067	0
0,02133	0
0,03200	0
0,04267	0
0,05333	0
0,06400	0
0,07467	0
0,08533	0
0,09600	0
0,10667	-1
0,11733	2
0,12800	-6
0,13867	-9
0,14933	-9
0,16000	-9
0,17067	-11
0,18133	-12
0,19200	-15
0,20267	-17
0,21333	-14
0,22400	-5
0,23467	-14
0,24533	-9
0,25600	-10
0,26667	-8
0,27733	-11
0,28800	-6
0,29867	-7
0,30933	-13
0,32000	-21
0,33067	-18
0,34133	-16
0,35200	-12
0,36267	-17
0,37333	-14
0,38400	-6
0,39467	-10
0,40533	-4
0,41600	-5
0,42667	-10
0,43733	-10
0,44800	-9
0,45867	-5
0,46933	-7
0,48000	-8
0,49067	-2
0,50133	-0
0,51200	-0
0,52267	5
0,53333	3
0,54400	1
0,55467	0
0,56533	-3
0,57600	-7
0,58667	-10
0,59733	-8
0,60800	-6
0,61867	-10
0,62933	-10
0,64000	-5
0,65067	-6
0,66133	-8
0,67200	-6
0,68267	-6
0,69333	-7
0,70400	-8
0,71467	-10
0,72533	-8
0,73600	-3
0,74667	-9
0,75733	-8
0,76800	-7
0,77867	0
0,78933	-6
0,80000	-6
0,81067	-14
0,82133	-8
0,83200	-5
0,84267	-12
0,85333	-9
0,86400	-11
0,87467	-13
0,88533	-9
0,89600	-13
0,90667	-10
0,91733	-10
0,92800	-8
0,93867	-11
0,94933	-11
0,96000	-9
0,97067	-10
0,98133	-14
0,99200	-12
1,00267	-14
1,01333	-22
1,02400	-18
1,03467	-17
1,04533	-15
1,05600	-17
1,06667	-24
1,07733	-20
1,08800	-8
1,09867	-9
1,10933	-22
1,12000	-25
1,13067	-15
1,14133	-16
1,15200	-5
1,16267	7
1,17333	14
1,18400	19
1,19467	16
1,20533	17
1,21600	9
1,22667	10
1,23733	14
1,24800	15
1,25867	20
1,26933	20
1,28000	27
1,29067	40
1,30133	52
1,31200	83
1,32267	138
1,33333	236
1,34400	349
1,35467	455
1,36533	523
1,37600	581
1,38667	662
1,39733	796
1,40800	1024
1,41867	1341
1,42933	1725
1,44000	2169
1,45067	2758
1,46133	3623
1,47200	4786
1,48267	6062
1,49333	7203
1,50400	8102
1,51467	8812
1,52533	9493
1,53600	10205
1,54667	10963
1,55733	11785
1,56800	13224
1,57867	18352
1,58933	35257
1,60000	73568
1,61067	135031
1,62133	209286
1,63200	279928
1,64267	333656
1,65333	364045
1,66400	372767
1,67467	364808
1,68533	344200
1,69600	314215
1,70667	277734
1,71733	238123
1,72800	197884
1,73867	159401
1,74933	124269
1,76000	94314
1,77067	70641
1,78133	53459
1,79200	42195
1,80267	36614
1,81333	37550
1,82400	45219
1,83467	56528
1,84533	66265
1,85600	70508
1,86667	68709
1,87733	62664
1,88800	54630
1,89867	46422
1,90933	39001
1,92000	32843
1,93067	27996
1,94133	24299
1,95200	21530
1,96267	19475
1,97333	17929
1,98400	16763
1,99467	15935
2,00533	15531
2,01600	15884
2,02667	17426
2,03733	20332
2,04800	24250
2,05867	28307
2,06933	31599
2,08000	33526
2,09067	34048
2,10133	33751
2,11200	33711
2,12267	35161
2,13333	38717
2,14400	43810
2,15467	48626
2,16533	51232
2,17600	50612
2,18667	46956
2,19733	41399
2,20800	35151
2,21867	29218
2,22933	24096
2,24000	19944
2,25067	16709
2,26133	14260
2,27200	12439
2,28267	11119
2,29333	10178
2,30400	9520
2,31467	9053
2,32533	8717
2,33600	8475
2,34667	8297
2,35733	8151
2,36800	8027
2,37867	7903
2,38933	7773
2,40000	7635
2,41067	7511
2,42133	7431
2,43200	7402
2,44267	7457
2,45333	7566
2,46400	7700
2,47467	7816
2,48533	7851
2,49600	7801
2,50667	7692
2,51733	7625
2,52800	7771
2,53867	8412
2,54933	10009
2,56000	13054
2,57067	17991
2,58133	24687
2,59200	32479
2,60267	40047
2,61333	46001
2,62400	49217
2,63467	49296
2,64533	46587
2,65600	41902
2,66667	36256
2,67733	30495
2,68800	25206
2,69867	20689
2,70933	16997
2,72000	14110
2,73067	11921
2,74133	10297
2,75200	9107
2,76267	8278
2,77333	7732
2,78400	7419
2,79467	7294
2,80533	7339
2,81600	7494
2,82667	7726
2,83733	8009
2,84800	8299
2,85867	8575
2,86933	8796
2,88000	8965
2,89067	9060
2,90133	9064
2,91200	8981
2,92267	8813
2,93333	8564
2,94400	8254
2,95467	7921
2,96533	7577
2,97600	7250
2,98667	6939
2,99733	6641
3,00800	6365
3,01867	6105
3,02933	5868
3,04000	5660
3,05067	5486
3,06133	5343
3,07200	5249
3,08267	5194
3,09333	5185
3,10400	5207
3,11467	5269
3,12533	5357
3,13600	5471
3,14667	5614
3,15733	5794
3,16800	5990
3,17867	6214
3,18933	6463
3,20000	6724
3,21067	7024
3,22133	7360
3,23200	7734
3,24267	8110
3,25333	8450
3,26400	8709
3,27467	8855
3,28533	8851
3,29600	8696
3,30667	8448
3,31733	8124
3,32800	7786
3,33867	7463
3,34933	7180
3,36000	6944
3,37067	6765
3,38133	6616
3,39200	6499
3,40267	6410
3,41333	6331
3,42400	6251
3,43467	6181
3,44533	6113
3,45600	6063
3,46667	6057
3,47733	6151
3,48800	6373
3,49867	6710
3,50933	7012
3,52000	7087
3,53067	6838
3,54133	6360
3,55200	5837
3,56267	5349
3,57333	4946
3,58400	4647
3,59467	4450
3,60533	4327
3,61600	4250
3,62667	4222
3,63733	4227
3,64800	4307
3,65867	4323
3,66933	4386
3,68000	4484
3,69067	4622
3,70133	4805
3,71200	5015
3,72267	5274
3,73333	5566
3,74400	5864
3,75467	6147
3,76533	6400
3,77600	6582
3,78667	6688
3,79733	6710
3,80800	6647
3,81867	6503
3,82933	6309
3,84000	6092
3,85067	5864
3,86133	5647
3,87200	5448
3,88267	5277
3,89333	5141
3,90400	5021
3,91467	4920
3,92533	4829
3,93600	4746
3,94667	4665
3,95733	4590
3,96800	4519
3,97867	4443
3,98933	4374
4,00000	4329
4,01067	4282
4,02133	4257
4,03200	4236
4,04267	4232
4,05333	4234
4,06400	4254
4,07467	4292
4,08533	4342
4,09600	4391
4,10667	4466
4,11733	4543
4,12800	4643
4,13867	4757
4,14933	4881
4,16000	5030
4,17067	5190
4,18133	5359
4,19200	5547
4,20267	5750
4,21333	5976
4,22400	6220
4,23467	6475
4,24533	6733
4,25600	6991
4,26667	7240
4,27733	7466
4,28800	7638
4,29867	7789
4,30933	7875
4,32000	7903
4,33067	7875
4,34133	7791
4,35200	7661
4,36267	7504
4,37333	7315
4,38400	7112
4,39467	6914
4,40533	6709
4,41600	6520
4,42667	6350
4,43733	6190
4,44800	6047
4,45867	5918
4,46933	5812
4,48000	5719
4,49067	5632
4,50133	5553
4,51200	5460
4,52267	5366
4,53333	5246
4,54400	5140
4,55467	5016
4,56533	4904
4,57600	4779
4,58667	4665
4,59733	4562
4,60800	4480
4,61867	4403
4,62933	4336
4,64000	4278
4,65067	4233
4,66133	4191
4,67200	4158
4,68267	4129
4,69333	4108
4,70400	4083
4,71467	4075
4,72533	4065
4,73600	4060
4,74667	4071
4,75733	4073
4,76800	4085
4,77867	4092
4,78933	4091
4,80000	4089
4,81067	4100
4,82133	4094
4,83200	4080
4,84267	4076
4,85333	4058
4,86400	4043
4,87467	4028
4,88533	4015
4,89600	4006
4,90667	3996
4,91733	3996
4,92800	4010
4,93867	4036
4,94933	4060
4,96000	4102
4,97067	4159
4,98133	4220
4,99200	4290
5,00267	4358
5,01333	4443
5,02400	4524
5,03467	4602
5,04533	4673
5,05600	4723
5,06667	4768
5,07733	4808
5,08800	4831
5,09867	4839
5,10933	4844
5,12000	4827
5,13067	4812
5,14133	4784
5,15200	4760
5,16267	4714
5,17333	4667
5,18400	4615
5,19467	4563
5,20533	4513
5,21600	4472
5,22667	4410
5,23733	4359
5,24800	4313
5,25867	4271
5,26933	4242
5,28000	4209
5,29067	4181
5,30133	4166
5,31200	4152
5,32267	4139
5,33333	4129
5,34400	4128
5,35467	4134
5,36533	4134
5,37600	4143
5,38667	4152
5,39733	4169
5,40800	4192
5,41867	4218
5,42933	4246
5,44000	4277
5,45067	4312
5,46133	4345
5,47200	4373
5,48267	4397
5,49333	4404
5,50400	4406
5,51467	4401
5,52533	4383
5,53600	4369
5,54667	4342
5,55733	4315
5,56800	4298
5,57867	4276
5,58933	4267
5,60000	4274
5,61067	4271
5,62133	4291
5,63200	4314
5,64267	4334
5,65333	4373
5,66400	4403
5,67467	4437
5,68533	4476
5,69600	4533
5,70667	4583
5,71733	4642
5,72800	4699
5,73867	4762
5,74933	4813
5,76000	4861
5,77067	4899
5,78133	4931
5,79200	4937
5,80267	4935
5,81333	4925
5,82400	4909
5,83467	4904
5,84533	4913
5,85600	4933
5,86667	4989
5,87733	5098
5,88800	5273
5,89867	5547
5,90933	5923
5,92000	6442
5,93067	7131
5,94133	7973
5,95200	8976
5,96267	10102
5,97333	11318
5,98400	12564
5,99467	13766
6,00533	14837
6,01600	15703
6,02667	16329
6,03733	16663
6,04800	16712
6,05867	16508
6,06933	16095
6,08000	15524
6,09067	14866
6,10133	14162
6,11200	13459
6,12267	12795
6,13333	12185
6,14400	11650
6,15467	11171
6,16533	10747
6,17600	10381
6,18667	10071
6,19733	9810
6,20800	9609
6,21867	9469
6,22933	9385
6,24000	9396
6,25067	9513
6,26133	9756
6,27200	10145
6,28267	10699
6,29333	11444
6,30400	12399
6,31467	13570
6,32533	14943
6,33600	16506
6,34667	18175
6,35733	19926
6,36800	21640
6,37867	23232
6,38933	24600
6,40000	25673
6,41067	26358
6,42133	26610
6,43200	26415
6,44267	25803
6,45333	24794
6,46400	23481
6,47467	21924
6,48533	20233
6,49600	18485
6,50667	16761
6,51733	15106
6,52800	13594
6,53867	12230
6,54933	11044
6,56000	10036
6,57067	9174
6,58133	8465
6,59200	7903
6,60267	7434
6,61333	7076
6,62400	6797
6,63467	6589
6,64533	6426
6,65600	6307
6,66667	6230
6,67733	6185
6,68800	6166
6,69867	6165
6,70933	6172
6,72000	6186
6,73067	6214
6,74133	6248
6,75200	6280
6,76267	6321
6,77333	6362
6,78400	6393
6,79467	6438
6,80533	6488
6,81600	6530
6,82667	6557
6,83733	6606
6,84800	6636
6,85867	6660
6,86933	6675
6,88000	6693
6,89067	6691
6,90133	6671
6,91200	6656
6,92267	6646
6,93333	6614
6,94400	6596
6,95467	6560
6,96533	6544
6,97600	6523
6,98667	6507
6,99733	6497
7,00800	6498
7,01867	6492
7,02933	6507
7,04000	6531
7,05067	6558
7,06133	6607
7,07200	6671
7,08267	6762
7,09333	6874
7,10400	7015
7,11467	7190
7,12533	7372
7,13600	7579
7,14667	7807
7,15733	8047
7,16800	8284
7,17867	8514
7,18933	8738
7,20000	8924
7,21067	9084
7,22133	9207
7,23200	9309
7,24267	9354
7,25333	9376
7,26400	9374
7,27467	9346
7,28533	9310
7,29600	9279
7,30667	9238
7,31733	9197
7,32800	9166
7,33867	9124
7,34933	9088
7,36000	9048
7,37067	9009
7,38133	8968
7,39200	8921
7,40267	8867
7,41333	8810
7,42400	8762
7,43467	8702
7,44533	8651
7,45600	8621
7,46667	8599
7,47733	8594
7,48800	8626
7,49867	8667
7,50933	8740
7,52000	8833
7,53067	8952
7,54133	9091
7,55200	9257
7,56267	9426
7,57333	9592
7,58400	9765
7,59467	9927
7,60533	10066
7,61600	10181
7,62667	10266
7,63733	10307
7,64800	10305
7,65867	10265
7,66933	10189
7,68000	10084
7,69067	9965
7,70133	9839
7,71200	9708
7,72267	9582
7,73333	9460
7,74400	9362
7,75467	9274
7,76533	9194
7,77600	9124
7,78667	9061
7,79733	9001
7,80800	8932
7,81867	8850
7,82933	8754
7,84000	8660
7,85067	8563
7,86133	8452
7,87200	8354
7,88267	8264
7,89333	8191
7,90400	8150
7,91467	8123
7,92533	8130
7,93600	8151
7,94667	8194
7,95733	8271
7,96800	8354
7,97867	8447
7,98933	8547
8,00000	8648
8,01067	8751
8,02133	8856
8,03200	8959
8,04267	9084
8,05333	9228
8,06400	9423
8,07467	9690
8,08533	10074
8,09600	10585
8,10667	11276
8,11733	12119
8,12800	13111
8,13867	14228
8,14933	15383
8,16000	16526
8,17067	17549
8,18133	18414
8,19200	19058
8,20267	19464
8,21333	19640
8,22400	19625
8,23467	19469
8,24533	19218
8,25600	18905
8,26667	18595
8,27733	18297
8,28800	18037
8,29867	17834
8,30933	17672
8,32000	17556
8,33067	17479
8,34133	17441
8,35200	17421
8,36267	17405
8,37333	17380
8,38400	17347
8,39467	17292
8,40533	17198
8,41600	17045
8,42667	16848
8,43733	16585
8,44800	16280
8,45867	15915
8,46933	15517
8,48000	15105
8,49067	14675
8,50133	14259
8,51200	13857
8,52267	13478
8,53333	13124
8,54400	12803
8,55467	12525
8,56533	12285
8,57600	12085
8,58667	11912
8,59733	11778
8,60800	11675
8,61867	11600
8,62933	11554
8,64000	11513
8,65067	11472
8,66133	11426
8,67200	11387
8,68267	11328
8,69333	11256
8,70400	11182
8,71467	11104
8,72533	11023
8,73600	10952
8,74667	10908
8,75733	10894
8,76800	10920
8,77867	11002
8,78933	11145
8,80000	11329
8,81067	11590
8,82133	11901
8,83200	12275
8,84267	12688
8,85333	13130
8,86400	13590
8,87467	14073
8,88533	14579
8,89600	15110
8,90667	15677
8,91733	16288
8,92800	16974
8,93867	17741
8,94933	18578
8,96000	19488
8,97067	20452
8,98133	21411
8,99200	22308
9,00267	23097
9,01333	23714
9,02400	24086
9,03467	24177
9,04533	23995
9,05600	23522
9,06667	22810
9,07733	21895
9,08800	20841
9,09867	19707
9,10933	18563
9,12000	17464
9,13067	16439
9,14133	15499
9,15200	14695
9,16267	14014
9,17333	13445
9,18400	12991
9,19467	12620
9,20533	12334
9,21600	12106
9,22667	11939
9,23733	11796
9,24800	11693
9,25867	11614
9,26933	11539
9,28000	11469
9,29067	11401
9,30133	11327
9,31200	11259
9,32267	11188
9,33333	11111
9,34400	11038
9,35467	10952
9,36533	10871
9,37600	10790
9,38667	10711
9,39733	10644
9,40800	10587
9,41867	10538
9,42933	10505
9,44000	10487
9,45067	10496
9,46133	10538
9,47200	10616
9,48267	10740
9,49333	10912
9,50400	11137
9,51467	11403
9,52533	11712
9,53600	12090
9,54667	12515
9,55733	13001
9,56800	13523
9,57867	14088
9,58933	14702
9,60000	15350
9,61067	16016
9,62133	16679
9,63200	17332
9,64267	17931
9,65333	18458
9,66400	18873
9,67467	19166
9,68533	19297
9,69600	19276
9,70667	19107
9,71733	18795
9,72800	18372
9,73867	17874
9,74933	17343
9,76000	16811
9,77067	16328
9,78133	15893
9,79200	15548
9,80267	15286
9,81333	15119
9,82400	15031
9,83467	15000
9,84533	15007
9,85600	15026
9,86667	15050
9,87733	15038
9,88800	15003
9,89867	14947
9,90933	14838
9,92000	14704
9,93067	14532
9,94133	14355
9,95200	14167
9,96267	13990
9,97333	13803
9,98400	13627
9,99467	13477
10,00533	13332
10,01600	13195
10,02667	13075
10,03733	12961
10,04800	12843
10,05867	12724
10,06933	12612
10,08000	12510
10,09067	12413
10,10133	12306
10,11200	12223
10,12267	12147
10,13333	12085
10,14400	12036
10,15467	11992
10,16533	11958
10,17600	11938
10,18667	11923
10,19733	11920
10,20800	11932
10,21867	11952
10,22933	11995
10,24000	12044
10,25067	12124
10,26133	12224
10,27200	12363
10,28267	12532
10,29333	12775
10,30400	13080
10,31467	13488
10,32533	14046
10,33600	14795
10,34667	15797
10,35733	17108
10,36800	18777
10,37867	20861
10,38933	23392
10,40000	26372
10,41067	29762
10,42133	33521
10,43200	37506
10,44267	41604
10,45333	45605
10,46400	49357
10,47467	52654
10,48533	55351
10,49600	57299
10,50667	58399
10,51733	58607
10,52800	57951
10,53867	56497
10,54933	54334
10,56000	51582
10,57067	48437
10,58133	44999
10,59200	41456
10,60267	37927
10,61333	34543
10,62400	31355
10,63467	28439
10,64533	25831
10,65600	23554
10,66667	21587
10,67733	19939
10,68800	18558
10,69867	17431
10,70933	16527
10,72000	15816
10,73067	15266
10,74133	14861
10,75200	14572
10,76267	14393
10,77333	14281
10,78400	14244
10,79467	14251
10,80533	14287
10,81600	14343
10,82667	14397
10,83733	14425
10,84800	14419
10,85867	14378
10,86933	14306
10,88000	14182
10,89067	14047
10,90133	13904
10,91200	13763
10,92267	13669
10,93333	13641
10,94400	13765
10,95467	14097
10,96533	14759
10,97600	15905
10,98667	17793
10,99733	20693
11,00800	25029
11,01867	31260
11,02933	40035
11,04000	51905
11,05067	67531
11,06133	87371
11,07200	111728
11,08267	140609
11,09333	173350
11,10400	209061
11,11467	246059
11,12533	282566
11,13600	316175
11,14667	344866
11,15733	366660
11,16800	380326
11,17867	385170
11,18933	381178
11,20000	369071
11,21067	349952
11,22133	325479
11,23200	297276
11,24267	267053
11,25333	236345
11,26400	206344
11,27467	178180
11,28533	152376
11,29600	129458
11,30667	109422
11,31733	92326
11,32800	77918
11,33867	65974
11,34933	56143
11,36000	48126
11,37067	41612
11,38133	36363
11,39200	32135
11,40267	28740
11,41333	26022
11,42400	23867
11,43467	22165
11,44533	20827
11,45600	19787
11,46667	18978
11,47733	18374
11,48800	17917
11,49867	17572
11,50933	17302
11,52000	17092
11,53067	16915
11,54133	16774
11,55200	16646
11,56267	16525
11,57333	16410
11,58400	16299
11,59467	16190
11,60533	16073
11,61600	15960
11,62667	15848
11,63733	15735
11,64800	15624
11,65867	15503
11,66933	15401
11,68000	15305
11,69067	15220
11,70133	15154
11,71200	15118
11,72267	15106
11,73333	15115
11,74400	15153
11,75467	15204
11,76533	15266
11,77600	15339
11,78667	15409
11,79733	15476
11,80800	15541
11,81867	15594
11,82933	15634
11,84000	15664
11,85067	15683
11,86133	15694
11,87200	15694
11,88267	15681
11,89333	15663
11,90400	15648
11,91467	15633
11,92533	15615
11,93600	15619
11,94667	15616
11,95733	15628
11,96800	15658
11,97867	15701
11,98933	15758
12,00000	15829
12,01067	15910
12,02133	16000
12,03200	16111
12,04267	16233
12,05333	16383
12,06400	16545
12,07467	16749
12,08533	17002
12,09600	17310
12,10667	17689
12,11733	18166
12,12800	18707
12,13867	19327
12,14933	20001
12,16000	20719
12,17067	21431
12,18133	22098
12,19200	22670
12,20267	23119
12,21333	23401
12,22400	23512
12,23467	23435
12,24533	23218
12,25600	22859
12,26667	22393
12,27733	21882
12,28800	21347
12,29867	20844
12,30933	20387
12,32000	19992
12,33067	19677
12,34133	19428
12,35200	19236
12,36267	19116
12,37333	19041
12,38400	19008
12,39467	18997
12,40533	19023
12,41600	19060
12,42667	19115
12,43733	19190
12,44800	19272
12,45867	19356
12,46933	19447
12,48000	19540
12,49067	19631
12,50133	19719
12,51200	19814
12,52267	19901
12,53333	20003
12,54400	20109
12,55467	20222
12,56533	20344
12,57600	20461
12,58667	20586
12,59733	20702
12,60800	20806
12,61867	20884
12,62933	20945
12,64000	20971
12,65067	20979
12,66133	20964
12,67200	20927
12,68267	20904
12,69333	20917
12,70400	20983
12,71467	21123
12,72533	21352
12,73600	21691
12,74667	22123
12,75733	22633
12,76800	23185
12,77867	23752
12,78933	24263
12,80000	24677
12,81067	24930
12,82133	25020
12,83200	24928
12,84267	24653
12,85333	24224
12,86400	23673
12,87467	23044
12,88533	22378
12,89600	21717
12,90667	21095
12,91733	20528
12,92800	20016
12,93867	19572
12,94933	19209
12,96000	18909
12,97067	18678
12,98133	18490
12,99200	18348
13,00267	18249
13,01333	18205
13,02400	18207
13,03467	18256
13,04533	18367
13,05600	18533
13,06667	18749
13,07733	19027
13,08800	19354
13,09867	19754
13,10933	20321
13,12000	21310
13,13067	23415
13,14133	28095
13,15200	37531
13,16267	54292
13,17333	79532
13,18400	112342
13,19467	149236
13,20533	185781
13,21600	218088
13,22667	243655
13,23733	261856
13,24800	273061
13,25867	278382
13,26933	279067
13,28000	276220
13,29067	270843
13,30133	263593
13,31200	255046
13,32267	245588
13,33333	235553
13,34400	225124
13,35467	214535
13,36533	203921
13,37600	193387
13,38667	183064
13,39733	173007
13,40800	163334
13,41867	154012
13,42933	145128
13,44000	136680
13,45067	128714
13,46133	121197
13,47200	114153
13,48267	107539
13,49333	101385
13,50400	95638
13,51467	90283
13,52533	85298
13,53600	80674
13,54667	76362
13,55733	72366
13,56800	68637
13,57867	65166
13,58933	61946
13,60000	58964
13,61067	56212
13,62133	53643
13,63200	51299
13,64267	49135
13,65333	47158
13,66400	45351
13,67467	43688
13,68533	42165
13,69600	40749
13,70667	39438
13,71733	38201
13,72800	37048
13,73867	35968
13,74933	34946
13,76000	34001
13,77067	33136
13,78133	32355
13,79200	31673
13,80267	31087
13,81333	30604
13,82400	30208
13,83467	29891
13,84533	29636
13,85600	29417
13,86667	29228
13,87733	29019
13,88800	28769
13,89867	28479
13,90933	28151
13,92000	27758
13,93067	27326
13,94133	26859
13,95200	26378
13,96267	25901
13,97333	25430
13,98400	24981
13,99467	24590
14,00533	24231
14,01600	23926
14,02667	23662
14,03733	23416
14,04800	23215
14,05867	23023
14,06933	22846
14,08000	22685
14,09067	22539
14,10133	22404
14,11200	22289
14,12267	22193
14,13333	22154
14,14400	22152
14,15467	22204
14,16533	22338
14,17600	22549
14,18667	22842
14,19733	23204
14,20800	23629
14,21867	24101
14,22933	24595
14,24000	25090
14,25067	25552
14,26133	25949
14,27200	26253
14,28267	26454
14,29333	26526
14,30400	26468
14,31467	26292
14,32533	26007
14,33600	25640
14,34667	25197
14,35733	24735
14,36800	24257
14,37867	23792
14,38933	23360
14,40000	22985
14,41067	22654
14,42133	22395
14,43200	22203
14,44267	22093
14,45333	22056
14,46400	22106
14,47467	22232
14,48533	22447
14,49600	22744
14,50667	23104
14,51733	23541
14,52800	24033
14,53867	24547
14,54933	25082
14,56000	25578
14,57067	26031
14,58133	26399
14,59200	26674
14,60267	26819
14,61333	26819
14,62400	26714
14,63467	26492
14,64533	26188
14,65600	25833
14,66667	25436
14,67733	25045
14,68800	24670
14,69867	24349
14,70933	24068
14,72000	23845
14,73067	23675
14,74133	23562
14,75200	23461
14,76267	23390
14,77333	23325
14,78400	23271
14,79467	23201
14,80533	23129
14,81600	23045
14,82667	22954
14,83733	22853
14,84800	22756
14,85867	22669
14,86933	22587
14,88000	22525
14,89067	22492
14,90133	22503
14,91200	22545
14,92267	22662
14,93333	22871
14,94400	23220
14,95467	23793
14,96533	24698
14,97600	26121
14,98667	28300
14,99733	31593
15,00800	36468
15,01867	43463
15,02933	53266
15,04000	66497
15,05067	83887
15,06133	105745
15,07200	132381
15,08267	163363
15,09333	198077
15,10400	234966
15,11467	272346
15,12533	307895
15,13600	339525
15,14667	365060
15,15733	382833
15,16800	391843
15,17867	391773
15,18933	382934
15,20000	366388
15,21067	343444
15,22133	315964
15,23200	285571
15,24267	254148
15,25333	223024
15,26400	193525
15,27467	166361
15,28533	142222
15,29600	121271
15,30667	103593
15,31733	88967
15,32800	77162
15,33867	67846
15,34933	60649
15,36000	55218
15,37067	51197
15,38133	48281
15,39200	46159
15,40267	44604
15,41333	43375
15,42400	42310
15,43467	41266
15,44533	40160
15,45600	38952
15,46667	37649
15,47733	36238
15,48800	34818
15,49867	33440
15,50933	32161
15,52000	31039
15,53067	30128
15,54133	29468
15,55200	29078
15,56267	28943
15,57333	29063
15,58400	29381
15,59467	29866
15,60533	30454
15,61600	31060
15,62667	31632
15,63733	32110
15,64800	32436
15,65867	32594
15,66933	32554
15,68000	32321
15,69067	31937
15,70133	31433
15,71200	30842
15,72267	30211
15,73333	29595
15,74400	29000
15,75467	28459
15,76533	27970
15,77600	27542
15,78667	27168
15,79733	26842
15,80800	26548
15,81867	26267
15,82933	26012
15,84000	25755
15,85067	25519
15,86133	25291
15,87200	25064
15,88267	24851
15,89333	24662
15,90400	24489
15,91467	24330
15,92533	24199
15,93600	24084
15,94667	24010
15,95733	23963
15,96800	23925
15,97867	23917
15,98933	23946
16,00000	23991
16,01067	24058
16,02133	24132
16,03200	24218
16,04267	24323
16,05333	24433
16,06400	24547
16,07467	24664
16,08533	24794
16,09600	24921
16,10667	25048
16,11733	25177
16,12800	25335
16,13867	25489
16,14933	25653
16,16000	25826
16,17067	26003
16,18133	26173
16,19200	26327
16,20267	26471
16,21333	26599
16,22400	26696
16,23467	26760
16,24533	26801
16,25600	26812
16,26667	26797
16,27733	26763
16,28800	26705
16,29867	26633
16,30933	26550
16,32000	26451
16,33067	26337
16,34133	26228
16,35200	26106
16,36267	25986
16,37333	25850
16,38400	25716
16,39467	25581
16,40533	25439
16,41600	25293
16,42667	25151
16,43733	25019
16,44800	24882
16,45867	24743
16,46933	24613
16,48000	24478
16,49067	24368
16,50133	24262
16,51200	24162
16,52267	24071
16,53333	23991
16,54400	23937
16,55467	23879
16,56533	23859
16,57600	23867
16,58667	23897
16,59733	23969
16,60800	24102
16,61867	24306
16,62933	24563
16,64000	24908
16,65067	25317
16,66133	25797
16,67200	26330
16,68267	26896
16,69333	27461
16,70400	28014
16,71467	28517
16,72533	28940
16,73600	29239
16,74667	29401
16,75733	29429
16,76800	29302
16,77867	29029
16,78933	28638
16,80000	28161
16,81067	27600
16,82133	26997
16,83200	26388
16,84267	25787
16,85333	25241
16,86400	24767
16,87467	24397
16,88533	24163
16,89600	24109
16,90667	24285
16,91733	24734
16,92800	25552
16,93867	26805
16,94933	28630
16,96000	31116
16,97067	34411
16,98133	38646
16,99200	43953
17,00267	50451
17,01333	58172
17,02400	67173
17,03467	77351
17,04533	88583
17,05600	100531
17,06667	112885
17,07733	125128
17,08800	136784
17,09867	147217
17,10933	155924
17,12000	162440
17,13067	166380
17,14133	167550
17,15200	165919
17,16267	161604
17,17333	154934
17,18400	146294
17,19467	136211
17,20533	125144
17,21600	113695
17,22667	102263
17,23733	91304
17,24800	81061
17,25867	71765
17,26933	63488
17,28000	56328
17,29067	50212
17,30133	45064
17,31200	40784
17,32267	37272
17,33333	34431
17,34400	32122
17,35467	30263
17,36533	28778
17,37600	27618
17,38667	26731
17,39733	26097
17,40800	25672
17,41867	25463
17,42933	25470
17,44000	25673
17,45067	26096
17,46133	26723
17,47200	27543
17,48267	28521
17,49333	29632
17,50400	30822
17,51467	32027
17,52533	33185
17,53600	34225
17,54667	35095
17,55733	35723
17,56800	36105
17,57867	36213
17,58933	36045
17,60000	35644
17,61067	35059
17,62133	34346
17,63200	33596
17,64267	32857
17,65333	32242
17,66400	31808
17,67467	31653
17,68533	31873
17,69600	32555
17,70667	33800
17,71733	35683
17,72800	38321
17,73867	41719
17,74933	45946
17,76000	50909
17,77067	56527
17,78133	62588
17,79200	68871
17,80267	75028
17,81333	80760
17,82400	85698
17,83467	89542
17,84533	92046
17,85600	93078
17,86667	92584
17,87733	90639
17,88800	87378
17,89867	83088
17,90933	77981
17,92000	72423
17,93067	66657
17,94133	60966
17,95200	55517
17,96267	50499
17,97333	45985
17,98400	42033
17,99467	38635
18,00533	35763
18,01600	33380
18,02667	31434
18,03733	29844
18,04800	28551
18,05867	27507
18,06933	26679
18,08000	26001
18,09067	25475
18,10133	25050
18,11200	24721
18,12267	24482
18,13333	24309
18,14400	24200
18,15467	24157
18,16533	24165
18,17600	24204
18,18667	24266
18,19733	24341
18,20800	24412
18,21867	24465
18,22933	24498
18,24000	24507
18,25067	24495
18,26133	24439
18,27200	24366
18,28267	24260
18,29333	24153
18,30400	24031
18,31467	23914
18,32533	23798
18,33600	23699
18,34667	23605
18,35733	23522
18,36800	23459
18,37867	23398
18,38933	23352
18,40000	23316
18,41067	23283
18,42133	23252
18,43200	23235
18,44267	23203
18,45333	23173
18,46400	23145
18,47467	23108
18,48533	23070
18,49600	23018
18,50667	22968
18,51733	22901
18,52800	22840
18,53867	22770
18,54933	22698
18,56000	22631
18,57067	22556
18,58133	22495
18,59200	22458
18,60267	22439
18,61333	22441
18,62400	22470
18,63467	22539
18,64533	22654
18,65600	22812
18,66667	23022
18,67733	23309
18,68800	23655
18,69867	24082
18,70933	24585
18,72000	25178
18,73067	25836
18,74133	26548
18,75200	27292
18,76267	28039
18,77333	28778
18,78400	29452
18,79467	30030
18,80533	30484
18,81600	30797
18,82667	30947
18,83733	30941
18,84800	30796
18,85867	30524
18,86933	30153
18,88000	29714
18,89067	29258
18,90133	28786
18,91200	28327
18,92267	27917
18,93333	27556
18,94400	27264
18,95467	27046
18,96533	26910
18,97600	26858
18,98667	26899
18,99733	27048
19,00800	27300
19,01867	27678
19,02933	28181
19,04000	28828
19,05067	29620
19,06133	30577
19,07200	31697
19,08267	32960
19,09333	34384
19,10400	35913
19,11467	37520
19,12533	39136
19,13600	40711
19,14667	42161
19,15733	43393
19,16800	44356
19,17867	44966
19,18933	45208
19,20000	45037
19,21067	44477
19,22133	43559
19,23200	42358
19,24267	40917
19,25333	39334
19,26400	37695
19,27467	36049
19,28533	34465
19,29600	32982
19,30667	31634
19,31733	30448
19,32800	29401
19,33867	28506
19,34933	27731
19,36000	27072
19,37067	26512
19,38133	26029
19,39200	25615
19,40267	25267
19,41333	24974
19,42400	24719
19,43467	24509
19,44533	24334
19,45600	24181
19,46667	24070
19,47733	23993
19,48800	23950
19,49867	23943
19,50933	24000
19,52000	24146
19,53067	24391
19,54133	24740
19,55200	25235
19,56267	25890
19,57333	26708
19,58400	27674
19,59467	28762
19,60533	29959
19,61600	31183
19,62667	32387
19,63733	33493
19,64800	34420
19,65867	35132
19,66933	35575
19,68000	35739
19,69067	35631
19,70133	35261
19,71200	34696
19,72267	33993
19,73333	33213
19,74400	32419
19,75467	31690
19,76533	31078
19,77600	30656
19,78667	30452
19,79733	30526
19,80800	30884
19,81867	31531
19,82933	32473
19,84000	33682
19,85067	35104
19,86133	36679
19,87200	38288
19,88267	39867
19,89333	41293
19,90400	42460
19,91467	43295
19,92533	43736
19,93600	43745
19,94667	43325
19,95733	42519
19,96800	41367
19,97867	39943
19,98933	38352
20,00000	36653
20,01067	34946
20,02133	33278
20,03200	31715
20,04267	30287
20,05333	29004
20,06400	27871
20,07467	26889
20,08533	26048
20,09600	25336
20,10667	24748
20,11733	24251
20,12800	23840
20,13867	23524
20,14933	23271
20,16000	23089
20,17067	22963
20,18133	22896
20,19200	22896
20,20267	22982
20,21333	23162
20,22400	23462
20,23467	23895
20,24533	24532
20,25600	25376
20,26667	26493
20,27733	27900
20,28800	29597
20,29867	31571
20,30933	33778
20,32000	36111
20,33067	38470
20,34133	40713
20,35200	42690
20,36267	44245
20,37333	45280
20,38400	45717
20,39467	45535
20,40533	44748
20,41600	43454
20,42667	41743
20,43733	39764
20,44800	37647
20,45867	35524
20,46933	33480
20,48000	31603
20,49067	29928
20,50133	28480
20,51200	27261
20,52267	26256
20,53333	25430
20,54400	24769
20,55467	24252
20,56533	23848
20,57600	23533
20,58667	23286
20,59733	23102
20,60800	22966
20,61867	22845
20,62933	22764
20,64000	22695
20,65067	22648
20,66133	22604
20,67200	22570
20,68267	22549
20,69333	22528
20,70400	22523
20,71467	22508
20,72533	22489
20,73600	22488
20,74667	22507
20,75733	22519
20,76800	22542
20,77867	22569
20,78933	22608
20,80000	22644
20,81067	22668
20,82133	22696
20,83200	22707
20,84267	22719
20,85333	22711
20,86400	22706
20,87467	22684
20,88533	22667
20,89600	22646
20,90667	22613
20,91733	22611
20,92800	22614
20,93867	22649
20,94933	22724
20,96000	22813
20,97067	22951
20,98133	23129
20,99200	23326
21,00267	23549
21,01333	23801
21,02400	24034
21,03467	24262
21,04533	24453
21,05600	24605
21,06667	24707
21,07733	24740
21,08800	24717
21,09867	24630
21,10933	24493
21,12000	24321
21,13067	24112
21,14133	23888
21,15200	23659
21,16267	23437
21,17333	23229
21,18400	23048
21,19467	22894
21,20533	22772
21,21600	22694
21,22667	22658
21,23733	22671
21,24800	22740
21,25867	22863
21,26933	23050
21,28000	23279
21,29067	23584
21,30133	23954
21,31200	24391
21,32267	24873
21,33333	25420
21,34400	26019
21,35467	26669
21,36533	27363
21,37600	28109
21,38667	28938
21,39733	29867
21,40800	30960
21,41867	32254
21,42933	33891
21,44000	35938
21,45067	38547
21,46133	41816
21,47200	45864
21,48267	50752
21,49333	56497
21,50400	63032
21,51467	70226
21,52533	77809
21,53600	85510
21,54667	92905
21,55733	99631
21,56800	105271
21,57867	109496
21,58933	112042
21,60000	112740
21,61067	111573
21,62133	108643
21,63200	104157
21,64267	98404
21,65333	91729
21,66400	84522
21,67467	77093
21,68533	69798
21,69600	62842
21,70667	56443
21,71733	50676
21,72800	45630
21,73867	41293
21,74933	37631
21,76000	34584
21,77067	32079
21,78133	30048
21,79200	28403
21,80267	27094
21,81333	26039
21,82400	25209
21,83467	24560
21,84533	24056
21,85600	23670
21,86667	23367
21,87733	23135
21,88800	22964
21,89867	22841
21,90933	22743
21,92000	22665
21,93067	22611
21,94133	22562
21,95200	22524
21,96267	22488
21,97333	22462
21,98400	22448
21,99467	22440
22,00533	22434
22,01600	22436
22,02667	22446
22,03733	22462
22,04800	22483
22,05867	22512
22,06933	22536
22,08000	22560
22,09067	22571
22,10133	22564
22,11200	22531
22,12267	22491
22,13333	22423
22,14400	22342
22,15467	22264
22,16533	22174
22,17600	22098
22,18667	22030
22,19733	21969
22,20800	21927
22,21867	21894
22,22933	21887
22,24000	21881
22,25067	21884
22,26133	21904
22,27200	21915
22,28267	21942
22,29333	21956
22,30400	21970
22,31467	21994
22,32533	22018
22,33600	22068
22,34667	22122
22,35733	22185
22,36800	22270
22,37867	22387
22,38933	22497
22,40000	22629
22,41067	22773
22,42133	22912
22,43200	23037
22,44267	23142
22,45333	23212
22,46400	23245
22,47467	23236
22,48533	23175
22,49600	23083
22,50667	22955
22,51733	22796
22,52800	22628
22,53867	22458
22,54933	22307
22,56000	22170
22,57067	22103
22,58133	22091
22,59200	22157
22,60267	22340
22,61333	22658
22,62400	23162
22,63467	23862
22,64533	24839
22,65600	26096
22,66667	27675
22,67733	29558
22,68800	31750
22,69867	34173
22,70933	36727
22,72000	39275
22,73067	41679
22,74133	43798
22,75200	45451
22,76267	46542
22,77333	46996
22,78400	46776
22,79467	45929
22,80533	44541
22,81600	42720
22,82667	40606
22,83733	38331
22,84800	36030
22,85867	33818
22,86933	31770
22,88000	29942
22,89067	28359
22,90133	27024
22,91200	25930
22,92267	25031
22,93333	24334
22,94400	23791
22,95467	23370
22,96533	23051
22,97600	22823
22,98667	22655
22,99733	22528
23,00800	22419
23,01867	22349
23,02933	22291
23,04000	22239
23,05067	22201
23,06133	22169
23,07200	22145
23,08267	22121
23,09333	22098
23,10400	22081
23,11467	22065
23,12533	22051
23,13600	22025
23,14667	22001
23,15733	21961
23,16800	21916
23,17867	21866
23,18933	21824
23,20000	21784
23,21067	21751
23,22133	21742
23,23200	21741
23,24267	21749
23,25333	21779
23,26400	21825
23,27467	21885
23,28533	21967
23,29600	22054
23,30667	22152
23,31733	22277
23,32800	22402
23,33867	22531
23,34933	22659
23,36000	22792
23,37067	22916
23,38133	23017
23,39200	23108
23,40267	23168
23,41333	23191
23,42400	23181
23,43467	23134
23,44533	23046
23,45600	22922
23,46667	22761
23,47733	22586
23,48800	22379
23,49867	22170
23,50933	21954
23,52000	21743
23,53067	21550
23,54133	21371
23,55200	21210
23,56267	21070
23,57333	20949
23,58400	20841
23,59467	20766
23,60533	20706
23,61600	20664
23,62667	20652
23,63733	20670
23,64800	20717
23,65867	20803
23,66933	20945
23,68000	21117
23,69067	21311
23,70133	21535
23,71200	21757
23,72267	21967
23,73333	22147
23,74400	22284
23,75467	22366
23,76533	22384
23,77600	22337
23,78667	22233
23,79733	22076
23,80800	21889
23,81867	21688
23,82933	21485
23,84000	21296
23,85067	21116
23,86133	20960
23,87200	20829
23,88267	20737
23,89333	20667
23,90400	20616
23,91467	20593
23,92533	20613
23,93600	20671
23,94667	20783
23,95733	20925
23,96800	21139
23,97867	21419
23,98933	21759
24,00000	22162
24,01067	22608
24,02133	23109
24,03200	23647
24,04267	24205
24,05333	24763
24,06400	25307
24,07467	25814
24,08533	26264
24,09600	26652
24,10667	26949
24,11733	27158
24,12800	27254
24,13867	27247
24,14933	27116
24,16000	26896
24,17067	26578
24,18133	26182
24,19200	25721
24,20267	25231
24,21333	24731
24,22400	24257
24,23467	23814
24,24533	23431
24,25600	23123
24,26667	22899
24,27733	22758
24,28800	22703
24,29867	22704
24,30933	22767
24,32000	22868
24,33067	22972
24,34133	23067
24,35200	23125
24,36267	23155
24,37333	23127
24,38400	23040
24,39467	22897
24,40533	22699
24,41600	22459
24,42667	22194
24,43733	21911
24,44800	21632
24,45867	21351
24,46933	21094
24,48000	20843
24,49067	20637
24,50133	20467
24,51200	20340
24,52267	20249
24,53333	20200
24,54400	20180
24,55467	20202
24,56533	20256
24,57600	20340
24,58667	20439
24,59733	20564
24,60800	20685
24,61867	20811
24,62933	20903
24,64000	20987
24,65067	21035
24,66133	21042
24,67200	21010
24,68267	20945
24,69333	20849
24,70400	20718
24,71467	20567
24,72533	20402
24,73600	20235
24,74667	20077
24,75733	19914
24,76800	19766
24,77867	19636
24,78933	19534
24,80000	19452
24,81067	19397
24,82133	19360
24,83200	19339
24,84267	19337
24,85333	19345
24,86400	19366
24,87467	19390
24,88533	19420
24,89600	19442
24,90667	19457
24,91733	19456
24,92800	19446
24,93867	19423
24,94933	19387
24,96000	19344
24,97067	19298
24,98133	19252
24,99200	19203
25,00267	19157
25,01333	19113
25,02400	19085
25,03467	19068
25,04533	19060
25,05600	19064
25,06667	19074
25,07733	19107
25,08800	19145
25,09867	19175
25,10933	19211
25,12000	19259
25,13067	19307
25,14133	19352
25,15200	19406
25,16267	19439
25,17333	19485
25,18400	19520
25,19467	19544
25,20533	19546
25,21600	19543
25,22667	19536
25,23733	19523
25,24800	19496
25,25867	19471
25,26933	19421
25,28000	19383
25,29067	19337
25,30133	19297
25,31200	19277
25,32267	19258
25,33333	19259
25,34400	19272
25,35467	19315
25,36533	19385
25,37600	19486
25,38667	19616
25,39733	19789
25,40800	19988
25,41867	20240
25,42933	20508
25,44000	20807
25,45067	21111
25,46133	21418
25,47200	21699
25,48267	21947
25,49333	22157
25,50400	22301
25,51467	22383
25,52533	22409
25,53600	22367
25,54667	22265
25,55733	22124
25,56800	21961
25,57867	21787
25,58933	21618
25,60000	21473
25,61067	21374
25,62133	21322
25,63200	21335
25,64267	21429
25,65333	21592
25,66400	21827
25,67467	22139
25,68533	22492
25,69600	22888
25,70667	23298
25,71733	23717
25,72800	24118
25,73867	24490
25,74933	24822
25,76000	25122
25,77067	25411
25,78133	25698
25,79200	26017
25,80267	26398
25,81333	26865
25,82400	27445
25,83467	28133
25,84533	28891
25,85600	29693
25,86667	30491
25,87733	31216
25,88800	31790
25,89867	32166
25,90933	32295
25,92000	32159
25,93067	31770
25,94133	31142
25,95200	30323
25,96267	29374
25,97333	28353
25,98400	27323
25,99467	26324
26,00533	25396
26,01600	24551
26,02667	23810
26,03733	23164
26,04800	22605
26,05867	22133
26,06933	21713
26,08000	21338
26,09067	21019
26,10133	20731
26,11200	20492
26,12267	20267
26,13333	20081
26,14400	19914
26,15467	19788
26,16533	19668
26,17600	19573
26,18667	19501
26,19733	19431
26,20800	19378
26,21867	19337
26,22933	19319
26,24000	19306
26,25067	19311
26,26133	19338
26,27200	19390
26,28267	19463
26,29333	19542
26,30400	19642
26,31467	19756
26,32533	19862
26,33600	19974
26,34667	20070
26,35733	20128
26,36800	20172
26,37867	20183
26,38933	20150
26,40000	20100
26,41067	20015
26,42133	19895
26,43200	19769
26,44267	19637
26,45333	19504
26,46400	19382
26,47467	19273
26,48533	19171
26,49600	19086
26,50667	19016
26,51733	18975
26,52800	18957
26,53867	18955
26,54933	18965
26,56000	18980
26,57067	19015
26,58133	19070
26,59200	19142
26,60267	19211
26,61333	19284
26,62400	19369
26,63467	19453
26,64533	19516
26,65600	19582
26,66667	19629
26,67733	19654
26,68800	19664
26,69867	19658
26,70933	19642
26,72000	19607
26,73067	19568
26,74133	19522
26,75200	19474
26,76267	19438
26,77333	19395
26,78400	19382
26,79467	19386
26,80533	19403
26,81600	19443
26,82667	19503
26,83733	19589
26,84800	19685
26,85867	19783
26,86933	19891
26,88000	19988
26,89067	20082
26,90133	20164
26,91200	20222
26,92267	20240
26,93333	20239
26,94400	20208
26,95467	20148
26,96533	20076
26,97600	19987
26,98667	19888
26,99733	19790
27,00800	19699
27,01867	19631
27,02933	19580
27,04000	19543
27,05067	19519
27,06133	19518
27,07200	19524
27,08267	19546
27,09333	19570
27,10400	19589
27,11467	19616
27,12533	19629
27,13600	19640
27,14667	19653
27,15733	19662
27,16800	19673
27,17867	19674
27,18933	19680
27,20000	19674
27,21067	19655
27,22133	19636
27,23200	19603
27,24267	19550
27,25333	19491
27,26400	19419
27,27467	19329
27,28533	19237
27,29600	19136
27,30667	19021
27,31733	18903
27,32800	18799
27,33867	18710
27,34933	18626
27,36000	18551
27,37067	18488
27,38133	18439
27,39200	18392
27,40267	18351
27,41333	18301
27,42400	18266
27,43467	18237
27,44533	18203
27,45600	18175
27,46667	18133
27,47733	18097
27,48800	18062
27,49867	18031
27,50933	17992
27,52000	17963
27,53067	17952
27,54133	17922
27,55200	17899
27,56267	17895
27,57333	17891
27,58400	17889
27,59467	17884
27,60533	17885
27,61600	17896
27,62667	17899
27,63733	17915
27,64800	17920
27,65867	17927
27,66933	17921
27,68000	17914
27,69067	17901
27,70133	17877
27,71200	17850
27,72267	17822
27,73333	17787
27,74400	17766
27,75467	17739
27,76533	17705
27,77600	17683
27,78667	17661
27,79733	17664
27,80800	17649
27,81867	17653
27,82933	17656
27,84000	17665
27,85067	17680
27,86133	17677
27,87200	17675
27,88267	17678
27,89333	17675
27,90400	17672
27,91467	17663
27,92533	17668
27,93600	17665
27,94667	17673
27,95733	17682
27,96800	17688
27,97867	17715
27,98933	17743
28,00000	17772
28,01067	17817
28,02133	17852
28,03200	17892
28,04267	17932
28,05333	17963
28,06400	18004
28,07467	18038
28,08533	18054
28,09600	18078
28,10667	18082
28,11733	18099
28,12800	18107
28,13867	18122
28,14933	18134
28,16000	18147
28,17067	18146
28,18133	18158
28,19200	18175
28,20267	18178
28,21333	18186
28,22400	18183
28,23467	18183
28,24533	18161
28,25600	18145
28,26667	18116
28,27733	18063
28,28800	18013
28,29867	17945
28,30933	17875
28,32000	17807
28,33067	17739
28,34133	17679
28,35200	17620
28,36267	17564
28,37333	17521
28,38400	17481
28,39467	17444
28,40533	17405
28,41600	17376
28,42667	17362
28,43733	17348
28,44800	17334
28,45867	17328
28,46933	17325
28,48000	17315
28,49067	17315
28,50133	17330
28,51200	17353
28,52267	17368
28,53333	17398
28,54400	17445
28,55467	17478
28,56533	17527
28,57600	17569
28,58667	17621
28,59733	17649
28,60800	17678
28,61867	17700
28,62933	17707
28,64000	17701
28,65067	17677
28,66133	17640
28,67200	17601
28,68267	17552
28,69333	17498
28,70400	17440
28,71467	17374
28,72533	17316
28,73600	17269
28,74667	17224
28,75733	17174
28,76800	17123
28,77867	17083
28,78933	17061
28,80000	17027
28,81067	17000
28,82133	16974
28,83200	16951
28,84267	16926
28,85333	16914
28,86400	16898
28,87467	16880
28,88533	16865
28,89600	16848
28,90667	16833
28,91733	16808
28,92800	16792
28,93867	16782
28,94933	16762
28,96000	16742
28,97067	16728
28,98133	16703
28,99200	16688
29,00267	16661
29,01333	16640
29,02400	16625
29,03467	16603
29,04533	16590
29,05600	16572
29,06667	16564
29,07733	16555
29,08800	16557
29,09867	16556
29,10933	16557
29,12000	16561
29,13067	16572
29,14133	16598
29,15200	16618
29,16267	16637
29,17333	16669
29,18400	16693
29,19467	16721
29,20533	16759
29,21600	16795
29,22667	16840
29,23733	16884
29,24800	16936
29,25867	16993
29,26933	17046
29,28000	17096
29,29067	17155
29,30133	17204
29,31200	17243
29,32267	17274
29,33333	17287
29,34400	17281
29,35467	17263
29,36533	17220
29,37600	17167
29,38667	17098
29,39733	17026
29,40800	16944
29,41867	16856
29,42933	16781
29,44000	16709
29,45067	16644
29,46133	16583
29,47200	16534
29,48267	16477
29,49333	16435
29,50400	16403
29,51467	16375
29,52533	16362
29,53600	16342
29,54667	16345
29,55733	16347
29,56800	16365
29,57867	16371
29,58933	16402
29,60000	16430
29,61067	16453
29,62133	16489
29,63200	16524
29,64267	16565
29,65333	16598
29,66400	16628
29,67467	16643
29,68533	16662
29,69600	16670
29,70667	16670
29,71733	16654
29,72800	16628
29,73867	16602
29,74933	16579
29,76000	16548
29,77067	16525
29,78133	16510
29,79200	16497
29,80267	16498
29,81333	16502
29,82400	16521
29,83467	16526
29,84533	16540
29,85600	16544
29,86667	16555
29,87733	16554
29,88800	16545
29,89867	16540
29,90933	16518
29,92000	16481
29,93067	16453
29,94133	16416
29,95200	16370
29,96267	16324
29,97333	16282
29,98400	16255
29,99467	16206
30,00533	16169
30,01600	16143
30,02667	16117
30,03733	16093
30,04800	16078
30,05867	16077
30,06933	16076
30,08000	16077
30,09067	16080
30,10133	16091
30,11200	16104
30,12267	16111
30,13333	16127
30,14400	16129
30,15467	16129
30,16533	16131
30,17600	16126
30,18667	16121
30,19733	16116
30,20800	16088
30,21867	16066
30,22933	16051
30,24000	16028
30,25067	16013
30,26133	15995
30,27200	15976
30,28267	15949
30,29333	15933
30,30400	15931
30,31467	15920
30,32533	15906
30,33600	15891
30,34667	15888
30,35733	15886
30,36800	15878
30,37867	15877
30,38933	15876
30,40000	15873
30,41067	15875
30,42133	15871
30,43200	15871
30,44267	15880
30,45333	15890
30,46400	15908
30,47467	15921
30,48533	15929
30,49600	15956
30,50667	15983
30,51733	16010
30,52800	16049
30,53867	16097
30,54933	16134
30,56000	16188
30,57067	16246
30,58133	16314
30,59200	16375
30,60267	16449
30,61333	16529
30,62400	16599
30,63467	16660
30,64533	16715
30,65600	16763
30,66667	16800
30,67733	16828
30,68800	16836
30,69867	16826
30,70933	16806
30,72000	16772
30,73067	16733
30,74133	16680
30,75200	16623
30,76267	16560
30,77333	16500
30,78400	16441
30,79467	16385
30,80533	16340
30,81600	16293
30,82667	16258
30,83733	16227
30,84800	16209
30,85867	16195
30,86933	16200
30,88000	16216
30,89067	16247
30,90133	16282
30,91200	16344
30,92267	16416
30,93333	16511
30,94400	16634
30,95467	16759
30,96533	16908
30,97600	17072
30,98667	17237
30,99733	17394
31,00800	17550
31,01867	17683
31,02933	17784
31,04000	17846
31,05067	17855
31,06133	17835
31,07200	17763
31,08267	17658
31,09333	17518
31,10400	17362
31,11467	17180
31,12533	17005
31,13600	16820
31,14667	16669
31,15733	16530
31,16800	16394
31,17867	16289
31,18933	16203
31,20000	16122
31,21067	16076
31,22133	16037
31,23200	16003
31,24267	15988
31,25333	15964
31,26400	15954
31,27467	15947
31,28533	15931
31,29600	15913
31,30667	15911
31,31733	15915
31,32800	15895
31,33867	15889
31,34933	15878
31,36000	15884
31,37067	15882
31,38133	15867
31,39200	15860
31,40267	15862
31,41333	15857
31,42400	15846
31,43467	15845
31,44533	15850
31,45600	15840
31,46667	15836
31,47733	15819
31,48800	15819
31,49867	15806
31,50933	15790
31,52000	15782
31,53067	15776
31,54133	15762
31,55200	15746
31,56267	15733
31,57333	15716
31,58400	15706
31,59467	15698
31,60533	15690
31,61600	15672
31,62667	15658
31,63733	15645
31,64800	15635
31,65867	15626
31,66933	15627
31,68000	15621
31,69067	15620
31,70133	15623
31,71200	15626
31,72267	15617
31,73333	15619
31,74400	15637
31,75467	15632
31,76533	15639
31,77600	15634
31,78667	15644
31,79733	15647
31,80800	15655
31,81867	15658
31,82933	15648
31,84000	15653
31,85067	15652
31,86133	15641
31,87200	15629
31,88267	15627
31,89333	15621
31,90400	15613
31,91467	15615
31,92533	15614
31,93600	15606
31,94667	15602
31,95733	15597
31,96800	15596
31,97867	15590
31,98933	15588
32,00000	15599
32,01067	15600
32,02133	15603
32,03200	15608
32,04267	15616
32,05333	15628
32,06400	15634
32,07467	15640
32,08533	15648
32,09600	15651
32,10667	15654
32,11733	15657
32,12800	15660
32,13867	15656
32,14933	15645
32,16000	15634
32,17067	15637
32,18133	15635
32,19200	15621
32,20267	15611
32,21333	15599
32,22400	15596
32,23467	15588
32,24533	15586
32,25600	15600
32,26667	15606
32,27733	15609
32,28800	15623
32,29867	15633
32,30933	15638
32,32000	15644
32,33067	15648
32,34133	15655
32,35200	15673
32,36267	15683
32,37333	15692
32,38400	15705
32,39467	15719
32,40533	15737
32,41600	15754
32,42667	15775
32,43733	15806
32,44800	15834
32,45867	15865
32,46933	15903
32,48000	15941
32,49067	15983
32,50133	16017
32,51200	16041
32,52267	16074
32,53333	16095
32,54400	16116
32,55467	16128
32,56533	16148
32,57600	16162
32,58667	16177
32,59733	16186
32,60800	16209
32,61867	16228
32,62933	16250
32,64000	16266
32,65067	16305
32,66133	16344
32,67200	16385
32,68267	16419
32,69333	16470
32,70400	16517
32,71467	16564
32,72533	16628
32,73600	16688
32,74667	16756
32,75733	16827
32,76800	16895
32,77867	16973
32,78933	17058
32,80000	17141
32,81067	17235
32,82133	17323
32,83200	17413
32,84267	17521
32,85333	17614
32,86400	17706
32,87467	17818
32,88533	17922
32,89600	18040
32,90667	18161
32,91733	18285
32,92800	18418
32,93867	18565
32,94933	18708
32,96000	18852
32,97067	19009
32,98133	19163
32,99200	19302
33,00267	19449
33,01333	19598
33,02400	19736
33,03467	19880
33,04533	20028
33,05600	20182
33,06667	20341
33,07733	20504
33,08800	20684
33,09867	20858
33,10933	21038
33,12000	21224
33,13067	21394
33,14133	21566
33,15200	21711
33,16267	21853
33,17333	21993
33,18400	22138
33,19467	22283
33,20533	22425
33,21600	22588
33,22667	22755
33,23733	22934
33,24800	23117
33,25867	23308
33,26933	23494
33,28000	23683
33,29067	23845
33,30133	24008
33,31200	24174
33,32267	24332
33,33333	24494
33,34400	24639
33,35467	24788
33,36533	24933
33,37600	25077
33,38667	25219
33,39733	25367
33,40800	25522
33,41867	25668
33,42933	25817
33,44000	25955
33,45067	26098
33,46133	26233
33,47200	26365
33,48267	26493
33,49333	26638
33,50400	26787
33,51467	26940
33,52533	27087
33,53600	27257
33,54667	27440
33,55733	27640
33,56800	27845
33,57867	28044
33,58933	28215
33,60000	28334
33,61067	28412
33,62133	28465
33,63200	28519
33,64267	28558
33,65333	28604
33,66400	28639
33,67467	28680
33,68533	28712
33,69600	28741
33,70667	28771
33,71733	28797
33,72800	28838
33,73867	28876
33,74933	28911
33,76000	28945
33,77067	28999
33,78133	29050
33,79200	29114
33,80267	29177
33,81333	29221
33,82400	29256
33,83467	29271
33,84533	29265
33,85600	29278
33,86667	29284
33,87733	29315
33,88800	29361
33,89867	29404
33,90933	29462
33,92000	29485
33,93067	29498
33,94133	29522
33,95200	29580
33,96267	29702
33,97333	29909
33,98400	30194
33,99467	30504
34,00533	30735
34,01600	30855
34,02667	30966
34,03733	31124
34,04800	31258
34,05867	31225
34,06933	30986
34,08000	30644
34,09067	30331
34,10133	30150
34,11200	30201
34,12267	30482
34,13333	30881
34,14400	31181
34,15467	31205
34,16533	31025
34,17600	30950
34,18667	31394
34,19733	32553
34,20800	34072
34,21867	35178
34,22933	35370
34,24000	34768
34,25067	33845
34,26133	32987
34,27200	32339
34,28267	31934
34,29333	31912
34,30400	32459
34,31467	33550
34,32533	34620
34,33600	34997
34,34667	34528
34,35733	33568
34,36800	32631
34,37867	31925
34,38933	31516
34,40000	31359
34,41067	31379
34,42133	31517
34,43200	31707
34,44267	31897
34,45333	32075
34,46400	32213
34,47467	32283
34,48533	32288
34,49600	32289
34,50667	32323
34,51733	32375
34,52800	32406
34,53867	32389
34,54933	32319
34,56000	32252
34,57067	32218
34,58133	32266
34,59200	32398
34,60267	32540
34,61333	32606
34,62400	32596
34,63467	32559
34,64533	32544
34,65600	32571
34,66667	32629
34,67733	32688
34,68800	32701
34,69867	32687
34,70933	32647
34,72000	32635
34,73067	32661
34,74133	32741
34,75200	32846
34,76267	32931
34,77333	33000
34,78400	33050
34,79467	33118
34,80533	33179
34,81600	33240
34,82667	33304
34,83733	33395
34,84800	33535
34,85867	33682
34,86933	33789
34,88000	33873
34,89067	33927
34,90133	33976
34,91200	34023
34,92267	34083
34,93333	34158
34,94400	34262
34,95467	34391
34,96533	34594
34,97600	35036
34,98667	36382
34,99733	40185
35,00800	48396
35,01867	62314
35,02933	82022
35,04000	106586
35,05067	131539
35,06133	148316
35,07200	150166
35,08267	138351
35,09333	120121
35,10400	102067
35,11467	87478
35,12533	76833
35,13600	69421
35,14667	64322
35,15733	60861
35,16800	58644
35,17867	57127
35,18933	55729
35,20000	54154
35,21067	52529
35,22133	51055
35,23200	49849
35,24267	48887
35,25333	48106
35,26400	47457
35,27467	46890
35,28533	46408
35,29600	45991
35,30667	45628
35,31733	45313
35,32800	45049
35,33867	44850
35,34933	44754
35,36000	44670
35,37067	44461
35,38133	43987
35,39200	43386
35,40267	42879
35,41333	42610
35,42400	42664
35,43467	43324
35,44533	44976
35,45600	47579
35,46667	50394
35,47733	52372
35,48800	52930
35,49867	52336
35,50933	51115
35,52000	49612
35,53067	48002
35,54133	46513
35,55200	45548
35,56267	45444
35,57333	46115
35,58400	46997
35,59467	47350
35,60533	46900
35,61600	45933
35,62667	44875
35,63733	43988
35,64800	43285
35,65867	42730
35,66933	42309
35,68000	42004
35,69067	41788
35,70133	41620
35,71200	41520
35,72267	41473
35,73333	41459
35,74400	41473
35,75467	41493
35,76533	41554
35,77600	41670
35,78667	41858
35,79733	42193
35,80800	42711
35,81867	43373
35,82933	43968
35,84000	44323
35,85067	44386
35,86133	44271
35,87200	44100
35,88267	43912
35,89333	43657
35,90400	43324
35,91467	42924
35,92533	42528
35,93600	42183
35,94667	41917
35,95733	41725
35,96800	41589
35,97867	41510
35,98933	41509
36,00000	41564
36,01067	41684
36,02133	41800
36,03200	41874
36,04267	41872
36,05333	41818
36,06400	41717
36,07467	41627
36,08533	41558
36,09600	41541
36,10667	41559
36,11733	41605
36,12800	41672
36,13867	41776
36,14933	41901
36,16000	42058
36,17067	42234
36,18133	42427
36,19200	42603
36,20267	42746
36,21333	42881
36,22400	43013
36,23467	43121
36,24533	43190
36,25600	43181
36,26667	43089
36,27733	43016
36,28800	43047
36,29867	43276
36,30933	43688
36,32000	44144
36,33067	44428
36,34133	44402
36,35200	44112
36,36267	43702
36,37333	43317
36,38400	43018
36,39467	42794
36,40533	42608
36,41600	42448
36,42667	42321
36,43733	42225
36,44800	42152
36,45867	42105
36,46933	42075
36,48000	42078
36,49067	42083
36,50133	42097
36,51200	42127
36,52267	42146
36,53333	42173
36,54400	42189
36,55467	42203
36,56533	42208
36,57600	42221
36,58667	42219
36,59733	42219
36,60800	42225
36,61867	42220
36,62933	42226
36,64000	42235
36,65067	42262
36,66133	42305
36,67200	42348
36,68267	42410
36,69333	42470
36,70400	42519
36,71467	42550
36,72533	42575
36,73600	42615
36,74667	42668
36,75733	42758
36,76800	42854
36,77867	42914
36,78933	42912
36,80000	42853
36,81067	42754
36,82133	42643
36,83200	42529
36,84267	42458
36,85333	42420
36,86400	42387
36,87467	42379
36,88533	42377
36,89600	42381
36,90667	42386
36,91733	42381
36,92800	42360
36,93867	42364
36,94933	42371
36,96000	42388
36,97067	42430
36,98133	42522
36,99200	42669
37,00267	42866
37,01333	43096
37,02400	43336
37,03467	43524
37,04533	43626
37,05600	43606
37,06667	43475
37,07733	43274
37,08800	43049
37,09867	42839
37,10933	42661
37,12000	42527
37,13067	42448
37,14133	42408
37,15200	42371
37,16267	42376
37,17333	42404
37,18400	42467
37,19467	42560
37,20533	42666
37,21600	42752
37,22667	42810
37,23733	42811
37,24800	42770
37,25867	42691
37,26933	42607
37,28000	42527
37,29067	42458
37,30133	42411
37,31200	42385
37,32267	42366
37,33333	42354
37,34400	42343
37,35467	42337
37,36533	42328
37,37600	42317
37,38667	42323
37,39733	42332
37,40800	42329
37,41867	42325
37,42933	42327
37,44000	42349
37,45067	42351
37,46133	42357
37,47200	42359
37,48267	42375
37,49333	42378
37,50400	42394
37,51467	42405
37,52533	42417
37,53600	42411
37,54667	42417
37,55733	42414
37,56800	42401
37,57867	42396
37,58933	42390
37,60000	42389
37,61067	42399
37,62133	42405
37,63200	42409
37,64267	42428
37,65333	42442
37,66400	42455
37,67467	42468
37,68533	42491
37,69600	42503
37,70667	42518
37,71733	42533
37,72800	42548
37,73867	42556
37,74933	42569
37,76000	42583
37,77067	42612
37,78133	42628
37,79200	42627
37,80267	42617
37,81333	42609
37,82400	42599
37,83467	42573
37,84533	42562
37,85600	42541
37,86667	42523
37,87733	42518
37,88800	42509
37,89867	42507
37,90933	42498
37,92000	42488
37,93067	42486
37,94133	42484
37,95200	42492
37,96267	42491
37,97333	42492
37,98400	42493
37,99467	42488
38,00533	42493
38,01600	42481
38,02667	42486
38,03733	42486
38,04800	42489
38,05867	42495
38,06933	42495
38,08000	42497
38,09067	42501
38,10133	42497
38,11200	42500
38,12267	42505
38,13333	42499
38,14400	42509
38,15467	42516
38,16533	42512
38,17600	42517
38,18667	42522
38,19733	42526
38,20800	42534
38,21867	42550
38,22933	42562
38,24000	42570
38,25067	42577
38,26133	42579
38,27200	42587
38,28267	42591
38,29333	42582
38,30400	42586
38,31467	42584
38,32533	42583
38,33600	42577
38,34667	42575
38,35733	42565
38,36800	42563
38,37867	42562
38,38933	42563
38,40000	42566
38,41067	42564
38,42133	42564
38,43200	42573
38,44267	42574
38,45333	42583
38,46400	42589
38,47467	42584
38,48533	42585
38,49600	42603
38,50667	42613
38,51733	42619
38,52800	42622
38,53867	42622
38,54933	42624
38,56000	42636
38,57067	42634
38,58133	42631
38,59200	42634
38,60267	42641
38,61333	42650
38,62400	42646
38,63467	42653
38,64533	42665
38,65600	42668
38,66667	42680
38,67733	42699
38,68800	42718
38,69867	42730
38,70933	42749
38,72000	42768
38,73067	42797
38,74133	42834
38,75200	42907
38,76267	43006
38,77333	43193
38,78400	43501
38,79467	43990
38,80533	44733
38,81600	45840
38,82667	47421
38,83733	49565
38,84800	52335
38,85867	55681
38,86933	59462
38,88000	63387
38,89067	67038
38,90133	69994
38,91200	71823
38,92267	72270
38,93333	71277
38,94400	68990
38,95467	65786
38,96533	62077
38,97600	58315
38,98667	54829
38,99733	51851
39,00800	49472
39,01867	47678
39,02933	46372
39,04000	45463
39,05067	44838
39,06133	44394
39,07200	44082
39,08267	43864
39,09333	43688
39,10400	43539
39,11467	43407
39,12533	43294
39,13600	43181
39,14667	43073
39,15733	42965
39,16800	42848
39,17867	42738
39,18933	42620
39,20000	42497
39,21067	42366
39,22133	42232
39,23200	42076
39,24267	41926
39,25333	41769
39,26400	41612
39,27467	41428
39,28533	41249
39,29600	41058
39,30667	40861
39,31733	40653
39,32800	40450
39,33867	40246
39,34933	40023
39,36000	39799
39,37067	39556
39,38133	39326
39,39200	39110
39,40267	38896
39,41333	38658
39,42400	38441
39,43467	38245
39,44533	38046
39,45600	37819
39,46667	37621
39,47733	37449
39,48800	37261
39,49867	37066
39,50933	36862
39,52000	36646
39,53067	36402
39,54133	36128
39,55200	35821
39,56267	35508
39,57333	35163
39,58400	34833
39,59467	34500
39,60533	34174
39,61600	33837
39,62667	33441
39,63733	32976
39,64800	32399
39,65867	31698
39,66933	30888
39,68000	29973
39,69067	28962
39,70133	27882
39,71200	26735
39,72267	25562
39,73333	24407
39,74400	23225
39,75467	22009
39,76533	20783
39,77600	19574
39,78667	18391
39,79733	17247
39,80800	16156
39,81867	15116
39,82933	14148
39,84000	13235
39,85067	12375
39,86133	11577
39,87200	10838
39,88267	10161
39,89333	9523
39,90400	8933
39,91467	8396
39,92533	7904
39,93600	7444
39,94667	7033
39,95733	6656
39,96800	6301
39,97867	5969
39,98933	5669
40,00000	5395
40,01067	5134
40,02133	4888
40,03200	4670
40,04267	4462
40,05333	4262
40,06400	4083
40,07467	3906
40,08533	3746
40,09600	3598
40,10667	3455
40,11733	3330
40,12800	3206
40,13867	3082
40,14933	2964
40,16000	2859
40,17067	2752
40,18133	2658
40,19200	2565
40,20267	2478
40,21333	2387
40,22400	2309
40,23467	2228
40,24533	2148
40,25600	2071
40,26667	1994
40,27733	1926
40,28800	1859
40,29867	1797
40,30933	1740
40,32000	1684
40,33067	1614
40,34133	1564
40,35200	1508
40,36267	1457
40,37333	1407
40,38400	1363
40,39467	1314
40,40533	1276
40,41600	1236
40,42667	1178
40,43733	1146
40,44800	1110
40,45867	1075
40,46933	1035
40,48000	998
40,49067	958
40,50133	926
40,51200	890
40,52267	859
40,53333	826
40,54400	794
40,55467	767
40,56533	740
40,57600	709
40,58667	685
40,59733	659
40,60800	628
40,61867	606
40,62933	580
40,64000	542
40,65067	524
40,66133	500
40,67200	483
40,68267	455
40,69333	428
40,70400	409
40,71467	382
40,72533	351
40,73600	331
40,74667	304
40,75733	287
40,76800	260
40,77867	244
40,78933	221
40,80000	199
40,81067	176
40,82133	156
40,83200	138
40,84267	120
40,85333	96
40,86400	75
40,87467	59
40,88533	53
40,89600	35
40,90667	21
40,91733	10
40,92800	-5
40,93867	-21
40,94933	-43
40,96000	-58
40,97067	-67
40,98133	-79
40,99200	-89
41,00267	-102
41,01333	-106
41,02400	-116
41,03467	-132
41,04533	-136
41,05600	-142
41,06667	-157
41,07733	-178
41,08800	-174
41,09867	-183
41,10933	-187
41,12000	-198
41,13067	-204
41,14133	-213
41,15200	-215
41,16267	-218
41,17333	-230
41,18400	-240
41,19467	-245
41,20533	-249
41,21600	-260
41,22667	-261
41,23733	-264
41,24800	-273
41,25867	-285
41,26933	-285
41,28000	-287
41,29067	-292
41,30133	-303
41,31200	-305
41,32267	-304
41,33333	-305
41,34400	-307
41,35467	-314
41,36533	-317
41,37600	-318
41,38667	-318
41,39733	-321
41,40800	-324
41,41867	-320
41,42933	-310
41,44000	-308
41,45067	-303
41,46133	-309
41,47200	-306
41,48267	-299
41,49333	-296
41,50400	-293
41,51467	-282
41,52533	-280
41,53600	-283
41,54667	-275
41,55733	-272
41,56800	-266
41,57867	-258
41,58933	-249
41,60000	-247
41,61067	-242
41,62133	-237
41,63200	-228
41,64267	-220
41,65333	-220
41,66400	-216
41,67467	-202
41,68533	-191
41,69600	-181
41,70667	-171
41,71733	-167
41,72800	-148
41,73867	-144
41,74933	-140
41,76000	-132
41,77067	-122
41,78133	-118
41,79200	-122
41,80267	-105
41,81333	-93
41,82400	-93
41,83467	-86
41,84533	-75
41,85600	-65
41,86667	-57
41,87733	-51
41,88800	-44
41,89867	-37
41,90933	-30
41,92000	-33
41,93067	-25
41,94133	-23
41,95200	-19
41,96267	-7
41,97333	-5
41,98400	2
41,99467	5
42,00533	12
42,01600	8
42,02667	23
42,03733	29
42,04800	28
42,05867	40
42,06933	47
42,08000	50
42,09067	54
42,10133	62
42,11200	69
42,12267	66
42,13333	72
42,14400	71
42,15467	74
42,16533	79
42,17600	88
42,18667	85
42,19733	91
42,20800	91
42,21867	96
42,22933	101
42,24000	96
42,25067	103
42,26133	97
42,27200	101
42,28267	108
42,29333	108
42,30400	116
42,31467	118
42,32533	107
42,33600	118
42,34667	119
42,35733	123
42,36800	125
42,37867	119
42,38933	126
42,40000	127
42,41067	128
42,42133	124
42,43200	131
42,44267	130
42,45333	134
42,46400	129
42,47467	140
42,48533	137
42,49600	141
42,50667	131
42,51733	141
42,52800	137
42,53867	135
42,54933	141
42,56000	151
42,57067	145
42,58133	144
42,59200	141
42,60267	134
42,61333	135
42,62400	139
42,63467	137
42,64533	127
42,65600	131
42,66667	138
42,67733	136
42,68800	140
42,69867	131
42,70933	133
42,72000	130
42,73067	132
42,74133	131
42,75200	133
42,76267	138
42,77333	136
42,78400	137
42,79467	130
42,80533	135
42,81600	132
42,82667	135
42,83733	133
42,84800	127
42,85867	120
42,86933	126
42,88000	121
42,89067	134
42,90133	132
42,91200	133
42,92267	124
42,93333	128
42,94400	125
42,95467	126
42,96533	138
42,97600	134
42,98667	128
42,99733	128
43,00800	129
43,01867	130
43,02933	118
43,04000	125
43,05067	127
43,06133	125
43,07200	122
43,08267	119
43,09333	120
43,10400	120
43,11467	115
43,12533	112
43,13600	119
43,14667	119
43,15733	119
43,16800	119
43,17867	108
43,18933	116
43,20000	121
43,21067	117
43,22133	123
43,23200	118
43,24267	119
43,25333	117
43,26400	117
43,27467	117
43,28533	129
43,29600	117
43,30667	121
43,31733	123
43,32800	128
43,33867	121
43,34933	116
43,36000	123
43,37067	126
43,38133	121
43,39200	123
43,40267	123
43,41333	126
43,42400	125
43,43467	118
43,44533	119
43,45600	124
43,46667	121
43,47733	120
43,48800	126
43,49867	125
43,50933	129
43,52000	124
43,53067	117
43,54133	124
43,55200	127
43,56267	126
43,57333	131
43,58400	131
43,59467	130
43,60533	125
43,61600	120
43,62667	123
43,63733	122
43,64800	124
43,65867	122
43,66933	122
43,68000	120
43,69067	118
43,70133	114
43,71200	113
43,72267	121
43,73333	116
43,74400	120
43,75467	129
43,76533	115
43,77600	118
43,78667	115
43,79733	114
43,80800	120
43,81867	119
43,82933	117
43,84000	117
43,85067	116
43,86133	107
43,87200	106
43,88267	110
43,89333	107
43,90400	111
43,91467	113
43,92533	108
43,93600	105
43,94667	105
43,95733	108
43,96800	101
43,97867	103
43,98933	102
44,00000	102
44,01067	107
44,02133	105
44,03200	101
44,04267	101
44,05333	95
44,06400	92
44,07467	97
44,08533	96
44,09600	95
44,10667	96
44,11733	98
44,12800	104
44,13867	102
44,14933	99
44,16000	94
44,17067	95
44,18133	99
44,19200	99
44,20267	100
44,21333	97
44,22400	111
44,23467	103
44,24533	101
44,25600	95
44,26667	97
44,27733	96
44,28800	94
44,29867	95
44,30933	90
44,32000	95
44,33067	86
44,34133	79
44,35200	91
44,36267	86
44,37333	91
44,38400	87
44,39467	90
44,40533	92
44,41600	87
44,42667	86
44,43733	98
44,44800	98
44,45867	95
44,46933	97
44,48000	98
44,49067	99
44,50133	96
44,51200	94
44,52267	97
44,53333	91
44,54400	91
44,55467	92
44,56533	91
44,57600	85
44,58667	94
44,59733	83
44,60800	86
44,61867	86
44,62933	93
44,64000	89
44,65067	87
44,66133	82
44,67200	88
44,68267	83
44,69333	87
44,70400	79
44,71467	84
44,72533	80
44,73600	83
44,74667	80
44,75733	82
44,76800	87
44,77867	86
44,78933	90
44,80000	82
44,81067	83
44,82133	83
44,83200	83
44,84267	82
44,85333	89
44,86400	85
44,87467	91
44,88533	98
44,89600	91
44,90667	93
44,91733	91
44,92800	91
44,93867	95
44,94933	86
44,96000	95
44,97067	92
44,98133	84
44,99200	91
45,00267	91
45,01333	82
45,02400	78
45,03467	80
45,04533	82
45,05600	84
45,06667	80
45,07733	84
45,08800	90
45,09867	81
45,10933	84
45,12000	84
45,13067	84
45,14133	79
45,15200	83
45,16267	81
45,17333	85
45,18400	84
45,19467	89
45,20533	85
45,21600	83
45,22667	96
45,23733	90
45,24800	98
45,25867	86
45,26933	93
45,28000	91
45,29067	92
45,30133	91
45,31200	83
45,32267	82
45,33333	93
45,34400	89
45,35467	93
45,36533	93
45,37600	88
45,38667	85
45,39733	83
45,40800	87
45,41867	87
45,42933	84
45,44000	80
45,45067	83
45,46133	82
45,47200	84
45,48267	80
45,49333	88
45,50400	84
45,51467	80
45,52533	80
45,53600	82
45,54667	78
45,55733	70
45,56800	71
45,57867	70
45,58933	70
45,60000	79
45,61067	78
45,62133	76
45,63200	74
45,64267	76
45,65333	78
45,66400	78
45,67467	93
45,68533	80
45,69600	77
45,70667	82
45,71733	78
45,72800	79
45,73867	82
45,74933	82
45,76000	81
45,77067	77
45,78133	75
45,79200	74
45,80267	75
45,81333	78
45,82400	73
45,83467	71
45,84533	73
45,85600	79
45,86667	81
45,87733	76
45,88800	72
45,89867	75
45,90933	71
45,92000	75
45,93067	77
45,94133	74
45,95200	77
45,96267	68
45,97333	74
45,98400	79
45,99467	74
46,00533	69
46,01600	65
46,02667	67
46,03733	70
46,04800	66
46,05867	69
46,06933	68
46,08000	75
46,09067	71
46,10133	70
46,11200	68
46,12267	72
46,13333	64
46,14400	62
46,15467	59
46,16533	59
46,17600	62
46,18667	71
46,19733	69
46,20800	72
46,21867	62
46,22933	59
46,24000	59
46,25067	62
46,26133	64
46,27200	63
46,28267	54
46,29333	62
46,30400	62
46,31467	56
46,32533	59
46,33600	54
46,34667	53
46,35733	57
46,36800	58
46,37867	64
46,38933	61
46,40000	64
46,41067	65
46,42133	57
46,43200	49
46,44267	54
46,45333	52
46,46400	60
46,47467	61
46,48533	65
46,49600	63
46,50667	60
46,51733	67
46,52800	67
46,53867	71
46,54933	65
46,56000	60
46,57067	57
46,58133	60
46,59200	66
46,60267	67
46,61333	72
46,62400	69
46,63467	66
46,64533	70
46,65600	70
46,66667	76
46,67733	78
46,68800	75
46,69867	78
46,70933	78
46,72000	76
46,73067	74
46,74133	77
46,75200	73
46,76267	75
46,77333	73
46,78400	80
46,79467	75
46,80533	72
46,81600	71
46,82667	81
46,83733	79
46,84800	70
46,85867	79
46,86933	83
46,88000	78
46,89067	79
46,90133	83
46,91200	80
46,92267	78
46,93333	76
46,94400	79
46,95467	76
46,96533	68
46,97600	71
46,98667	75
46,99733	78
47,00800	74
47,01867	75
47,02933	84
47,04000	80
47,05067	76
47,06133	73
47,07200	77
47,08267	82
47,09333	79
47,10400	75
47,11467	76
47,12533	77
47,13600	71
47,14667	67
47,15733	76
47,16800	69
47,17867	76
47,18933	72
47,20000	70
47,21067	77
47,22133	66
47,23200	62
47,24267	64
47,25333	71
47,26400	67
47,27467	66
47,28533	79
47,29600	74
47,30667	71
47,31733	69
47,32800	67
47,33867	62
47,34933	73
47,36000	75
47,37067	78
47,38133	64
47,39200	65
47,40267	56
47,41333	68
47,42400	61
47,43467	71
47,44533	66
47,45600	68
47,46667	70
47,47733	81
47,48800	76
47,49867	74
47,50933	77
47,52000	68
47,53067	70
47,54133	78
47,55200	69
47,56267	71
47,57333	68
47,58400	76
47,59467	74
47,60533	71
47,61600	73
47,62667	78
47,63733	72
47,64800	75
47,65867	76
47,66933	73
47,68000	69
47,69067	67
47,70133	71
47,71200	75
47,72267	78
47,73333	78
47,74400	71
47,75467	69
47,76533	73
47,77600	71
47,78667	67
47,79733	65
47,80800	68
47,81867	67
47,82933	70
47,84000	69
47,85067	63
47,86133	69
47,87200	71
47,88267	72
47,89333	70
47,90400	69
47,91467	71
47,92533	69
47,93600	65
47,94667	66
47,95733	69
47,96800	75
47,97867	67
47,98933	64
48,00000	62
48,01067	66
48,02133	61
48,03200	59
48,04267	60
48,05333	59
48,06400	64
48,07467	62
48,08533	56
48,09600	61
48,10667	67
48,11733	75
48,12800	73
48,13867	64
48,14933	64
48,16000	66
48,17067	71
48,18133	71
48,19200	62
48,20267	64
48,21333	70
48,22400	71
48,23467	69
48,24533	66
48,25600	70
48,26667	71
48,27733	70
48,28800	65
48,29867	71
48,30933	69
48,32000	64
48,33067	63
48,34133	65
48,35200	62
48,36267	62
48,37333	65
48,38400	58
48,39467	61
48,40533	65
48,41600	62
48,42667	67
48,43733	65
48,44800	72
48,45867	75
48,46933	71
48,48000	64
48,49067	55
48,50133	57
48,51200	61
48,52267	56
48,53333	56
48,54400	49
48,55467	53
48,56533	56
48,57600	56
48,58667	56
48,59733	55
48,60800	57
48,61867	52
48,62933	53
48,64000	53
48,65067	56
48,66133	60
48,67200	58
48,68267	52
48,69333	50
48,70400	50
48,71467	57
48,72533	57
48,73600	57
48,74667	61
48,75733	60
48,76800	56
48,77867	52
48,78933	53
48,80000	58
48,81067	50
48,82133	54
48,83200	63
48,84267	49
48,85333	60
48,86400	56
48,87467	53
48,88533	53
48,89600	49
48,90667	53
48,91733	50
48,92800	54
48,93867	60
48,94933	50
48,96000	54
48,97067	52
48,98133	54
48,99200	52
49,00267	51
49,01333	52
49,02400	52
49,03467	50
49,04533	50
49,05600	57
49,06667	56
49,07733	54
49,08800	43
49,09867	48
49,10933	49
49,12000	52
49,13067	48
49,14133	48
49,15200	45
49,16267	47
49,17333	48
49,18400	51
49,19467	50
49,20533	44
49,21600	44
49,22667	39
49,23733	30
49,24800	37
49,25867	39
49,26933	42
49,28000	40
49,29067	39
49,30133	35
49,31200	36
49,32267	38
49,33333	34
49,34400	42
49,35467	39
49,36533	35
49,37600	32
49,38667	34
49,39733	44
49,40800	40
49,41867	41
49,42933	36
49,44000	35
49,45067	32
49,46133	31
49,47200	37
49,48267	33
49,49333	33
49,50400	34
49,51467	35
49,52533	36
49,53600	35
49,54667	40
49,55733	34
49,56800	30
49,57867	28
49,58933	28
49,60000	34
49,61067	36
49,62133	36
49,63200	34
49,64267	28
49,65333	32
49,66400	35
49,67467	34
49,68533	30
49,69600	32
49,70667	28
49,71733	29
49,72800	29
49,73867	28
49,74933	27
49,76000	32
49,77067	33
49,78133	20
49,79200	21
49,80267	24
49,81333	26
49,82400	21
49,83467	17
49,84533	25
49,85600	22
49,86667	24
49,87733	30
49,88800	24
49,89867	32
49,90933	25
49,92000	24
49,93067	25
49,94133	22
49,95200	23
49,96267	27
49,97333	25
49,98400	23
49,99467	23
50,00533	25


