[Header]
Application Name	LabSolutions
Version	5.73
Data File Name	C:\Users\Public\DADOS\Ricardo borges\RMBorges\26.02.25\CURCUMIN.lcd
Output Date	26/02/2025
Output Time	20:20:07

[File Information]
Type	Data File
Generated	26/02/2025 19:29:38
Generated by	System Administrator
Modified	26/02/2025 20:20:07
Modified by	System Administrator

[Sample Information]
Operator Name	System Administrator
Acquired	26/02/2025 19:30:03
Sample Type	0:Unknown
Level	0
Sample Name	CURCUMIN
Sample ID	CURCUMIN
ISTD Amount1	1
ISTD Amount2	1
ISTD Amount3	1
ISTD Amount4	1
ISTD Amount5	1
ISTD Amount6	1
ISTD Amount7	1
ISTD Amount8	1
ISTD Amount9	1
ISTD Amount10	1
ISTD Amount11	1
ISTD Amount12	1
ISTD Amount13	1
ISTD Amount14	1
ISTD Amount15	1
ISTD Amount16	1
ISTD Amount17	1
ISTD Amount18	1
ISTD Amount19	1
ISTD Amount20	1
ISTD Amount21	1
ISTD Amount22	1
ISTD Amount23	1
ISTD Amount24	1
ISTD Amount25	1
ISTD Amount26	1
ISTD Amount27	1
ISTD Amount28	1
ISTD Amount29	1
ISTD Amount30	1
ISTD Amount31	1
ISTD Amount32	1
Sample Amount	1
Dilution Factor	1
Vial#	9
Injection Volume	10

[Original Files]
Data File	C:\Users\Public\DADOS\Ricardo borges\RMBorges\26.02.25\CURCUMIN.lcd
Method File	C:\Users\Public\MÉTODOS\MÉTODOS HPLC AUTOMÁTICO\RICARDO BORGES\RMBorges\sciffee\experimental 1 - pool.lcm
Batch File	C:\Users\Public\DADOS\Ricardo borges\RMBorges\26.02.25\BATCH_RM_MIX POOL_26.02.2025.lcb
Report Format File	C:\LabSolutions\System\Default.lsr

[File Description]


[Configuration]
Instrument Name	HPLC analítico (automático)
Instrument #	1
Line #	1
# of Detectors	1
Detector ID	PDA
Detector Name	PDA
# of Channels	1

[Peak Table(PDA-Ch1)]
# of Peaks	22
Peak#	R.Time	I.Time	F.Time	Area	Height	A/H	Conc.	Mark	ID#	Name	k'	Plate #	Plate Ht.	Tailing	Resolution	Sep.Factor	Area Ratio	Height Ratio	Conc. %	Norm Conc.
1	1,671	1,493	1,835	103211	17259	5,980	0,000	   			0,000	1577	95,130	0,994	0,000	0,000	0	0	0,000	0,000
2	17,762	17,579	17,909	1673	185	9,023	0,000	   			9,631	75516	1,986	0,992	75,397	0,000	0	0	0,000	0,000
3	20,931	20,725	21,088	1962	204	9,620	0,000	   			11,528	102590	1,462	0,968	12,189	1,197	0	0	0,000	0,000
4	26,496	25,355	26,549	4837	118	41,105	0,000	   			14,859	31962	4,693	0,000	13,029	1,289	0	0	0,000	0,000
5	27,029	26,549	27,189	3227	78	41,419	0,000	 V 			15,178	2647	56,667	0,000	0,396	1,021	0	0	0,000	0,000
6	27,584	27,189	27,712	1374	40	34,760	0,000	 V 			15,510	37066	4,047	0,000	0,415	1,022	0	0	0,000	0,000
7	29,685	29,163	30,005	2579	95	27,256	0,000	   			16,768	33828	4,434	0,768	3,448	1,081	0	0	0,000	0,000
8	30,539	30,283	30,645	3355	289	11,597	0,000	   			17,278	129997	1,154	0,000	1,734	1,030	0	0	0,000	0,000
9	30,839	30,645	30,965	7652	669	11,445	0,000	 V 			17,458	145879	1,028	0,000	0,906	1,010	0	0	0,000	0,000
10	31,112	30,965	31,253	2904	258	11,273	0,000	 V 			17,621	126556	1,185	0,000	0,812	1,009	0	0	0,000	0,000
11	33,723	32,864	33,803	230567	16985	13,575	0,000	   			19,184	270003	0,556	0,000	8,571	1,089	0	0	0,000	0,000
12	34,290	33,803	34,613	7948494	1441366	5,515	0,000	 V 			19,524	798965	0,188	0,906	2,746	1,018	0	0	0,000	0,000
13	35,079	34,613	35,424	1073590	117257	9,156	0,000	 V 			19,996	649072	0,231	0,000	4,817	1,024	0	0	0,000	0,000
14	35,495	35,424	35,563	128344	19173	6,694	0,000	 V 			20,245	214255	0,700	0,000	1,728	1,012	0	0	0,000	0,000
15	35,602	35,563	35,755	108633	13404	8,105	0,000	 V 			20,309	44720	3,354	0,000	0,218	1,003	0	0	0,000	0,000
16	35,860	35,755	36,000	93514	8136	11,494	0,000	 V 			20,463	81331	1,844	0,000	0,438	1,008	0	0	0,000	0,000
17	36,043	36,000	36,107	23173	3917	5,917	0,000	 V 			20,573	0	0,000	0,000	0,000	1,005	0	0	0,000	0,000
18	36,342	36,107	36,512	56949	3735	15,247	0,000	 V 			20,752	20936	7,165	0,000	0,000	1,009	0	0	0,000	0,000
19	36,795	36,693	36,917	2353	475	4,949	0,000	   			21,023	973314	0,154	0,955	0,785	1,013	0	0	0,000	0,000
20	37,045	36,928	37,152	7184	1311	5,481	0,000	   			21,173	782472	0,192	1,145	1,581	1,007	0	0	0,000	0,000
21	37,236	37,152	37,397	2502	485	5,159	0,000	 V 			21,287	857629	0,175	0,000	1,163	1,005	0	0	0,000	0,000
22	38,918	38,656	39,968	1072886	37497	28,613	0,000	   			22,294	338379	0,443	2,838	7,852	1,047	0	0	0,000	0,000

[Compound Results(PDA)]
# of IDs	0

[PDA Multi Chromatogram(Ch1)]
# of Points	      4690
Interval(msec)	640
Start Time(min)	0
End Time(min)	50,016
Intensity Units	mAU
Intensity Multiplier	1
Type	MultiChrom
Wavelength(nm)	254
Bandwidth(nm)	4
R.Time (min)	Intensity
0,00000	0
0,01067	0
0,02133	0
0,03200	0
0,04267	0
0,05333	0
0,06400	0
0,07467	0
0,08533	0
0,09600	0
0,10667	0
0,11733	0
0,12800	2
0,13867	3
0,14933	-7
0,16000	-4
0,17067	-3
0,18133	-13
0,19200	-10
0,20267	-11
0,21333	-3
0,22400	-5
0,23467	-8
0,24533	-9
0,25600	-3
0,26667	-10
0,27733	-11
0,28800	-9
0,29867	-11
0,30933	-10
0,32000	-7
0,33067	-7
0,34133	-9
0,35200	-5
0,36267	-11
0,37333	-17
0,38400	-12
0,39467	-15
0,40533	-10
0,41600	-8
0,42667	-10
0,43733	-15
0,44800	-20
0,45867	-25
0,46933	-18
0,48000	-12
0,49067	-8
0,50133	-10
0,51200	-12
0,52267	-16
0,53333	-14
0,54400	-9
0,55467	-13
0,56533	-11
0,57600	-9
0,58667	-19
0,59733	-21
0,60800	-19
0,61867	-22
0,62933	-19
0,64000	-14
0,65067	-13
0,66133	-14
0,67200	-20
0,68267	-16
0,69333	-20
0,70400	-18
0,71467	-23
0,72533	-19
0,73600	-18
0,74667	-16
0,75733	-19
0,76800	-22
0,77867	-15
0,78933	-14
0,80000	-20
0,81067	-14
0,82133	-15
0,83200	-19
0,84267	-17
0,85333	-20
0,86400	-15
0,87467	-14
0,88533	-12
0,89600	-20
0,90667	-17
0,91733	-23
0,92800	-21
0,93867	-21
0,94933	-19
0,96000	-17
0,97067	-17
0,98133	-18
0,99200	-17
1,00267	-18
1,01333	-23
1,02400	-20
1,03467	-15
1,04533	-13
1,05600	-15
1,06667	-10
1,07733	-14
1,08800	-17
1,09867	-13
1,10933	-8
1,12000	-15
1,13067	-11
1,14133	-14
1,15200	-1
1,16267	-5
1,17333	-5
1,18400	-6
1,19467	-8
1,20533	-7
1,21600	1
1,22667	-2
1,23733	-4
1,24800	-1
1,25867	-2
1,26933	1
1,28000	-5
1,29067	0
1,30133	-4
1,31200	-3
1,32267	-2
1,33333	11
1,34400	3
1,35467	-2
1,36533	-1
1,37600	-7
1,38667	2
1,39733	4
1,40800	4
1,41867	9
1,42933	6
1,44000	8
1,45067	10
1,46133	6
1,47200	16
1,48267	9
1,49333	9
1,50400	13
1,51467	15
1,52533	6
1,53600	11
1,54667	29
1,55733	60
1,56800	88
1,57867	110
1,58933	113
1,60000	106
1,61067	101
1,62133	91
1,63200	448
1,64267	3682
1,65333	9586
1,66400	13219
1,67467	13449
1,68533	11957
1,69600	10135
1,70667	8360
1,71733	6471
1,72800	4346
1,73867	2135
1,74933	30
1,76000	-1798
1,77067	-3259
1,78133	-4330
1,79200	-5085
1,80267	-5656
1,81333	-6238
1,82400	-6852
1,83467	-7337
1,84533	-7471
1,85600	-7170
1,86667	-6453
1,87733	-5451
1,88800	-4313
1,89867	-3218
1,90933	-2286
1,92000	-1561
1,93067	-1031
1,94133	-668
1,95200	-415
1,96267	-261
1,97333	-158
1,98400	-106
1,99467	-76
2,00533	-54
2,01600	-35
2,02667	-22
2,03733	-15
2,04800	-8
2,05867	4
2,06933	-5
2,08000	-7
2,09067	-7
2,10133	-7
2,11200	-3
2,12267	2
2,13333	-5
2,14400	-2
2,15467	-2
2,16533	3
2,17600	-4
2,18667	-12
2,19733	-14
2,20800	-13
2,21867	-11
2,22933	-5
2,24000	-8
2,25067	-3
2,26133	-5
2,27200	2
2,28267	-2
2,29333	-4
2,30400	-1
2,31467	3
2,32533	7
2,33600	-0
2,34667	-1
2,35733	1
2,36800	4
2,37867	6
2,38933	-1
2,40000	-2
2,41067	2
2,42133	2
2,43200	-7
2,44267	-4
2,45333	-9
2,46400	3
2,47467	5
2,48533	0
2,49600	-0
2,50667	0
2,51733	1
2,52800	-4
2,53867	-7
2,54933	-13
2,56000	-10
2,57067	-3
2,58133	1
2,59200	-14
2,60267	-14
2,61333	-12
2,62400	-12
2,63467	-21
2,64533	-36
2,65600	-83
2,66667	-143
2,67733	-226
2,68800	-318
2,69867	-408
2,70933	-488
2,72000	-541
2,73067	-567
2,74133	-569
2,75200	-548
2,76267	-499
2,77333	-438
2,78400	-373
2,79467	-314
2,80533	-250
2,81600	-191
2,82667	-146
2,83733	-98
2,84800	-67
2,85867	-44
2,86933	-34
2,88000	-21
2,89067	-17
2,90133	-22
2,91200	-16
2,92267	-11
2,93333	-5
2,94400	0
2,95467	-9
2,96533	-7
2,97600	-14
2,98667	-10
2,99733	-18
3,00800	-13
3,01867	-12
3,02933	-9
3,04000	5
3,05067	5
3,06133	3
3,07200	1
3,08267	3
3,09333	2
3,10400	7
3,11467	5
3,12533	3
3,13600	1
3,14667	2
3,15733	-2
3,16800	-6
3,17867	-7
3,18933	-6
3,20000	-3
3,21067	-7
3,22133	-10
3,23200	-11
3,24267	-11
3,25333	-11
3,26400	-4
3,27467	-2
3,28533	-12
3,29600	-10
3,30667	-8
3,31733	-11
3,32800	-10
3,33867	-13
3,34933	-7
3,36000	-13
3,37067	-11
3,38133	-10
3,39200	-4
3,40267	-9
3,41333	-11
3,42400	-15
3,43467	-6
3,44533	-2
3,45600	7
3,46667	16
3,47733	33
3,48800	51
3,49867	60
3,50933	43
3,52000	15
3,53067	-6
3,54133	-19
3,55200	-30
3,56267	-34
3,57333	-41
3,58400	-43
3,59467	-50
3,60533	-50
3,61600	-44
3,62667	-37
3,63733	-38
3,64800	-35
3,65867	-29
3,66933	-25
3,68000	-15
3,69067	-10
3,70133	-8
3,71200	-3
3,72267	-11
3,73333	-6
3,74400	2
3,75467	2
3,76533	9
3,77600	17
3,78667	13
3,79733	17
3,80800	12
3,81867	10
3,82933	7
3,84000	13
3,85067	18
3,86133	13
3,87200	17
3,88267	12
3,89333	5
3,90400	11
3,91467	7
3,92533	4
3,93600	0
3,94667	9
3,95733	8
3,96800	2
3,97867	6
3,98933	6
4,00000	1
4,01067	4
4,02133	6
4,03200	4
4,04267	2
4,05333	8
4,06400	7
4,07467	8
4,08533	15
4,09600	7
4,10667	10
4,11733	12
4,12800	16
4,13867	13
4,14933	8
4,16000	9
4,17067	13
4,18133	14
4,19200	9
4,20267	4
4,21333	8
4,22400	16
4,23467	12
4,24533	12
4,25600	13
4,26667	5
4,27733	9
4,28800	11
4,29867	9
4,30933	15
4,32000	16
4,33067	24
4,34133	26
4,35200	15
4,36267	23
4,37333	18
4,38400	22
4,39467	24
4,40533	27
4,41600	25
4,42667	26
4,43733	29
4,44800	28
4,45867	27
4,46933	30
4,48000	31
4,49067	34
4,50133	33
4,51200	40
4,52267	41
4,53333	38
4,54400	38
4,55467	29
4,56533	34
4,57600	40
4,58667	41
4,59733	41
4,60800	39
4,61867	38
4,62933	41
4,64000	44
4,65067	44
4,66133	47
4,67200	49
4,68267	48
4,69333	50
4,70400	50
4,71467	51
4,72533	58
4,73600	58
4,74667	59
4,75733	65
4,76800	72
4,77867	75
4,78933	82
4,80000	83
4,81067	80
4,82133	81
4,83200	85
4,84267	92
4,85333	88
4,86400	93
4,87467	99
4,88533	101
4,89600	106
4,90667	109
4,91733	106
4,92800	100
4,93867	102
4,94933	110
4,96000	121
4,97067	116
4,98133	110
4,99200	112
5,00267	115
5,01333	119
5,02400	127
5,03467	127
5,04533	126
5,05600	128
5,06667	133
5,07733	132
5,08800	131
5,09867	136
5,10933	148
5,12000	152
5,13067	153
5,14133	156
5,15200	158
5,16267	159
5,17333	162
5,18400	164
5,19467	168
5,20533	159
5,21600	161
5,22667	171
5,23733	182
5,24800	187
5,25867	195
5,26933	201
5,28000	194
5,29067	197
5,30133	202
5,31200	206
5,32267	210
5,33333	212
5,34400	214
5,35467	220
5,36533	227
5,37600	238
5,38667	232
5,39733	232
5,40800	233
5,41867	235
5,42933	241
5,44000	252
5,45067	245
5,46133	243
5,47200	248
5,48267	254
5,49333	255
5,50400	263
5,51467	264
5,52533	268
5,53600	271
5,54667	272
5,55733	273
5,56800	282
5,57867	280
5,58933	282
5,60000	283
5,61067	288
5,62133	283
5,63200	288
5,64267	299
5,65333	299
5,66400	300
5,67467	305
5,68533	315
5,69600	315
5,70667	310
5,71733	315
5,72800	325
5,73867	335
5,74933	336
5,76000	342
5,77067	339
5,78133	344
5,79200	350
5,80267	360
5,81333	359
5,82400	357
5,83467	360
5,84533	358
5,85600	364
5,86667	361
5,87733	363
5,88800	375
5,89867	375
5,90933	381
5,92000	387
5,93067	387
5,94133	382
5,95200	381
5,96267	393
5,97333	396
5,98400	398
5,99467	402
6,00533	405
6,01600	398
6,02667	398
6,03733	401
6,04800	407
6,05867	409
6,06933	415
6,08000	413
6,09067	415
6,10133	418
6,11200	427
6,12267	428
6,13333	433
6,14400	434
6,15467	436
6,16533	449
6,17600	452
6,18667	446
6,19733	444
6,20800	449
6,21867	450
6,22933	457
6,24000	456
6,25067	463
6,26133	462
6,27200	464
6,28267	464
6,29333	467
6,30400	474
6,31467	479
6,32533	479
6,33600	476
6,34667	480
6,35733	482
6,36800	492
6,37867	500
6,38933	510
6,40000	508
6,41067	508
6,42133	519
6,43200	528
6,44267	539
6,45333	535
6,46400	536
6,47467	539
6,48533	549
6,49600	551
6,50667	555
6,51733	547
6,52800	555
6,53867	552
6,54933	555
6,56000	550
6,57067	545
6,58133	543
6,59200	543
6,60267	542
6,61333	548
6,62400	551
6,63467	556
6,64533	557
6,65600	563
6,66667	558
6,67733	560
6,68800	567
6,69867	561
6,70933	557
6,72000	560
6,73067	563
6,74133	570
6,75200	578
6,76267	583
6,77333	583
6,78400	584
6,79467	583
6,80533	585
6,81600	590
6,82667	603
6,83733	598
6,84800	608
6,85867	609
6,86933	607
6,88000	609
6,89067	614
6,90133	618
6,91200	617
6,92267	630
6,93333	626
6,94400	633
6,95467	633
6,96533	629
6,97600	634
6,98667	642
6,99733	639
7,00800	644
7,01867	645
7,02933	651
7,04000	657
7,05067	657
7,06133	665
7,07200	662
7,08267	652
7,09333	659
7,10400	657
7,11467	671
7,12533	667
7,13600	671
7,14667	675
7,15733	675
7,16800	680
7,17867	684
7,18933	691
7,20000	692
7,21067	688
7,22133	692
7,23200	703
7,24267	700
7,25333	701
7,26400	696
7,27467	693
7,28533	696
7,29600	700
7,30667	710
7,31733	707
7,32800	714
7,33867	711
7,34933	720
7,36000	721
7,37067	730
7,38133	732
7,39200	740
7,40267	735
7,41333	744
7,42400	743
7,43467	742
7,44533	749
7,45600	751
7,46667	766
7,47733	765
7,48800	764
7,49867	763
7,50933	758
7,52000	768
7,53067	770
7,54133	777
7,55200	776
7,56267	782
7,57333	785
7,58400	785
7,59467	792
7,60533	790
7,61600	795
7,62667	793
7,63733	802
7,64800	803
7,65867	804
7,66933	810
7,68000	816
7,69067	817
7,70133	816
7,71200	822
7,72267	828
7,73333	831
7,74400	843
7,75467	839
7,76533	843
7,77600	837
7,78667	847
7,79733	845
7,80800	844
7,81867	849
7,82933	857
7,84000	847
7,85067	853
7,86133	857
7,87200	866
7,88267	869
7,89333	870
7,90400	871
7,91467	873
7,92533	878
7,93600	880
7,94667	876
7,95733	887
7,96800	886
7,97867	887
7,98933	897
8,00000	902
8,01067	903
8,02133	905
8,03200	907
8,04267	909
8,05333	910
8,06400	911
8,07467	908
8,08533	912
8,09600	920
8,10667	923
8,11733	925
8,12800	927
8,13867	932
8,14933	931
8,16000	935
8,17067	939
8,18133	932
8,19200	944
8,20267	941
8,21333	941
8,22400	950
8,23467	958
8,24533	959
8,25600	964
8,26667	964
8,27733	963
8,28800	965
8,29867	973
8,30933	974
8,32000	973
8,33067	977
8,34133	983
8,35200	991
8,36267	990
8,37333	997
8,38400	994
8,39467	993
8,40533	993
8,41600	993
8,42667	997
8,43733	1001
8,44800	1012
8,45867	1015
8,46933	1027
8,48000	1018
8,49067	1022
8,50133	1022
8,51200	1028
8,52267	1023
8,53333	1036
8,54400	1037
8,55467	1039
8,56533	1037
8,57600	1038
8,58667	1042
8,59733	1047
8,60800	1045
8,61867	1055
8,62933	1058
8,64000	1069
8,65067	1069
8,66133	1075
8,67200	1083
8,68267	1080
8,69333	1089
8,70400	1097
8,71467	1100
8,72533	1100
8,73600	1102
8,74667	1102
8,75733	1103
8,76800	1104
8,77867	1108
8,78933	1113
8,80000	1113
8,81067	1115
8,82133	1119
8,83200	1125
8,84267	1126
8,85333	1129
8,86400	1134
8,87467	1139
8,88533	1136
8,89600	1134
8,90667	1137
8,91733	1135
8,92800	1147
8,93867	1143
8,94933	1152
8,96000	1155
8,97067	1155
8,98133	1162
8,99200	1158
9,00267	1167
9,01333	1168
9,02400	1182
9,03467	1178
9,04533	1180
9,05600	1181
9,06667	1177
9,07733	1188
9,08800	1188
9,09867	1187
9,10933	1193
9,12000	1188
9,13067	1197
9,14133	1201
9,15200	1202
9,16267	1210
9,17333	1211
9,18400	1212
9,19467	1208
9,20533	1220
9,21600	1219
9,22667	1222
9,23733	1223
9,24800	1224
9,25867	1234
9,26933	1239
9,28000	1240
9,29067	1238
9,30133	1235
9,31200	1245
9,32267	1242
9,33333	1256
9,34400	1259
9,35467	1263
9,36533	1264
9,37600	1268
9,38667	1272
9,39733	1273
9,40800	1276
9,41867	1276
9,42933	1281
9,44000	1285
9,45067	1279
9,46133	1286
9,47200	1282
9,48267	1289
9,49333	1291
9,50400	1297
9,51467	1304
9,52533	1308
9,53600	1320
9,54667	1323
9,55733	1325
9,56800	1328
9,57867	1336
9,58933	1342
9,60000	1347
9,61067	1355
9,62133	1361
9,63200	1371
9,64267	1372
9,65333	1377
9,66400	1394
9,67467	1405
9,68533	1404
9,69600	1412
9,70667	1421
9,71733	1429
9,72800	1433
9,73867	1428
9,74933	1426
9,76000	1423
9,77067	1419
9,78133	1418
9,79200	1420
9,80267	1418
9,81333	1417
9,82400	1423
9,83467	1416
9,84533	1420
9,85600	1427
9,86667	1423
9,87733	1418
9,88800	1417
9,89867	1428
9,90933	1427
9,92000	1437
9,93067	1443
9,94133	1435
9,95200	1446
9,96267	1450
9,97333	1447
9,98400	1451
9,99467	1459
10,00533	1454
10,01600	1461
10,02667	1462
10,03733	1455
10,04800	1464
10,05867	1472
10,06933	1474
10,08000	1472
10,09067	1488
10,10133	1493
10,11200	1488
10,12267	1492
10,13333	1492
10,14400	1492
10,15467	1491
10,16533	1496
10,17600	1500
10,18667	1508
10,19733	1509
10,20800	1511
10,21867	1516
10,22933	1517
10,24000	1512
10,25067	1510
10,26133	1516
10,27200	1526
10,28267	1524
10,29333	1533
10,30400	1540
10,31467	1532
10,32533	1538
10,33600	1546
10,34667	1545
10,35733	1546
10,36800	1549
10,37867	1555
10,38933	1557
10,40000	1564
10,41067	1568
10,42133	1564
10,43200	1569
10,44267	1565
10,45333	1578
10,46400	1582
10,47467	1586
10,48533	1584
10,49600	1591
10,50667	1597
10,51733	1600
10,52800	1605
10,53867	1608
10,54933	1610
10,56000	1613
10,57067	1613
10,58133	1619
10,59200	1620
10,60267	1620
10,61333	1621
10,62400	1629
10,63467	1629
10,64533	1635
10,65600	1637
10,66667	1645
10,67733	1640
10,68800	1640
10,69867	1647
10,70933	1654
10,72000	1658
10,73067	1662
10,74133	1667
10,75200	1659
10,76267	1663
10,77333	1668
10,78400	1667
10,79467	1675
10,80533	1673
10,81600	1675
10,82667	1690
10,83733	1682
10,84800	1687
10,85867	1689
10,86933	1688
10,88000	1697
10,89067	1694
10,90133	1699
10,91200	1701
10,92267	1704
10,93333	1712
10,94400	1715
10,95467	1714
10,96533	1719
10,97600	1720
10,98667	1725
10,99733	1724
11,00800	1727
11,01867	1732
11,02933	1732
11,04000	1730
11,05067	1739
11,06133	1748
11,07200	1748
11,08267	1752
11,09333	1757
11,10400	1753
11,11467	1761
11,12533	1773
11,13600	1779
11,14667	1772
11,15733	1773
11,16800	1778
11,17867	1780
11,18933	1787
11,20000	1787
11,21067	1791
11,22133	1792
11,23200	1800
11,24267	1802
11,25333	1801
11,26400	1796
11,27467	1809
11,28533	1816
11,29600	1832
11,30667	1841
11,31733	1841
11,32800	1855
11,33867	1871
11,34933	1894
11,36000	1907
11,37067	1924
11,38133	1933
11,39200	1947
11,40267	1967
11,41333	1975
11,42400	1986
11,43467	1986
11,44533	1992
11,45600	1989
11,46667	1984
11,47733	1982
11,48800	1979
11,49867	1966
11,50933	1959
11,52000	1949
11,53067	1945
11,54133	1941
11,55200	1933
11,56267	1928
11,57333	1921
11,58400	1911
11,59467	1909
11,60533	1916
11,61600	1914
11,62667	1912
11,63733	1916
11,64800	1918
11,65867	1921
11,66933	1923
11,68000	1927
11,69067	1930
11,70133	1938
11,71200	1946
11,72267	1958
11,73333	1953
11,74400	1958
11,75467	1966
11,76533	1980
11,77600	1983
11,78667	1990
11,79733	1995
11,80800	2003
11,81867	2013
11,82933	2018
11,84000	2018
11,85067	2012
11,86133	2018
11,87200	2018
11,88267	2017
11,89333	2022
11,90400	2026
11,91467	2020
11,92533	2015
11,93600	2019
11,94667	2015
11,95733	2015
11,96800	2022
11,97867	2026
11,98933	2023
12,00000	2027
12,01067	2031
12,02133	2033
12,03200	2036
12,04267	2042
12,05333	2046
12,06400	2040
12,07467	2045
12,08533	2045
12,09600	2048
12,10667	2051
12,11733	2060
12,12800	2053
12,13867	2053
12,14933	2067
12,16000	2069
12,17067	2075
12,18133	2074
12,19200	2075
12,20267	2078
12,21333	2086
12,22400	2087
12,23467	2100
12,24533	2097
12,25600	2103
12,26667	2115
12,27733	2104
12,28800	2112
12,29867	2113
12,30933	2116
12,32000	2126
12,33067	2140
12,34133	2137
12,35200	2137
12,36267	2141
12,37333	2152
12,38400	2150
12,39467	2154
12,40533	2155
12,41600	2172
12,42667	2168
12,43733	2173
12,44800	2172
12,45867	2180
12,46933	2184
12,48000	2187
12,49067	2186
12,50133	2190
12,51200	2196
12,52267	2204
12,53333	2198
12,54400	2199
12,55467	2209
12,56533	2207
12,57600	2212
12,58667	2214
12,59733	2217
12,60800	2221
12,61867	2219
12,62933	2230
12,64000	2228
12,65067	2233
12,66133	2246
12,67200	2250
12,68267	2252
12,69333	2255
12,70400	2260
12,71467	2267
12,72533	2268
12,73600	2269
12,74667	2276
12,75733	2277
12,76800	2277
12,77867	2283
12,78933	2280
12,80000	2285
12,81067	2294
12,82133	2295
12,83200	2300
12,84267	2301
12,85333	2307
12,86400	2319
12,87467	2319
12,88533	2320
12,89600	2317
12,90667	2321
12,91733	2325
12,92800	2335
12,93867	2337
12,94933	2335
12,96000	2341
12,97067	2341
12,98133	2357
12,99200	2360
13,00267	2360
13,01333	2367
13,02400	2365
13,03467	2368
13,04533	2378
13,05600	2378
13,06667	2387
13,07733	2393
13,08800	2382
13,09867	2385
13,10933	2384
13,12000	2388
13,13067	2394
13,14133	2396
13,15200	2404
13,16267	2408
13,17333	2419
13,18400	2419
13,19467	2424
13,20533	2422
13,21600	2430
13,22667	2437
13,23733	2443
13,24800	2442
13,25867	2436
13,26933	2447
13,28000	2454
13,29067	2453
13,30133	2461
13,31200	2469
13,32267	2471
13,33333	2479
13,34400	2483
13,35467	2486
13,36533	2489
13,37600	2491
13,38667	2495
13,39733	2501
13,40800	2507
13,41867	2510
13,42933	2513
13,44000	2516
13,45067	2521
13,46133	2524
13,47200	2529
13,48267	2536
13,49333	2539
13,50400	2543
13,51467	2550
13,52533	2556
13,53600	2562
13,54667	2569
13,55733	2570
13,56800	2563
13,57867	2573
13,58933	2582
13,60000	2581
13,61067	2582
13,62133	2592
13,63200	2594
13,64267	2602
13,65333	2614
13,66400	2622
13,67467	2629
13,68533	2650
13,69600	2663
13,70667	2674
13,71733	2684
13,72800	2699
13,73867	2715
13,74933	2715
13,76000	2721
13,77067	2733
13,78133	2745
13,79200	2744
13,80267	2740
13,81333	2737
13,82400	2734
13,83467	2735
13,84533	2739
13,85600	2740
13,86667	2735
13,87733	2737
13,88800	2738
13,89867	2739
13,90933	2726
13,92000	2736
13,93067	2733
13,94133	2733
13,95200	2739
13,96267	2745
13,97333	2740
13,98400	2743
13,99467	2747
14,00533	2750
14,01600	2756
14,02667	2758
14,03733	2752
14,04800	2758
14,05867	2762
14,06933	2754
14,08000	2757
14,09067	2766
14,10133	2775
14,11200	2779
14,12267	2789
14,13333	2786
14,14400	2793
14,15467	2789
14,16533	2792
14,17600	2799
14,18667	2805
14,19733	2810
14,20800	2811
14,21867	2812
14,22933	2820
14,24000	2826
14,25067	2829
14,26133	2835
14,27200	2840
14,28267	2844
14,29333	2853
14,30400	2851
14,31467	2853
14,32533	2864
14,33600	2871
14,34667	2872
14,35733	2879
14,36800	2880
14,37867	2893
14,38933	2887
14,40000	2896
14,41067	2893
14,42133	2905
14,43200	2915
14,44267	2916
14,45333	2925
14,46400	2923
14,47467	2935
14,48533	2939
14,49600	2943
14,50667	2939
14,51733	2947
14,52800	2957
14,53867	2964
14,54933	2967
14,56000	2973
14,57067	2979
14,58133	2978
14,59200	2984
14,60267	2989
14,61333	2995
14,62400	3000
14,63467	3011
14,64533	3014
14,65600	3012
14,66667	3018
14,67733	3019
14,68800	3025
14,69867	3024
14,70933	3033
14,72000	3044
14,73067	3044
14,74133	3057
14,75200	3055
14,76267	3060
14,77333	3068
14,78400	3066
14,79467	3075
14,80533	3079
14,81600	3086
14,82667	3090
14,83733	3093
14,84800	3099
14,85867	3104
14,86933	3104
14,88000	3112
14,89067	3125
14,90133	3126
14,91200	3129
14,92267	3135
14,93333	3138
14,94400	3147
14,95467	3150
14,96533	3154
14,97600	3162
14,98667	3168
14,99733	3173
15,00800	3178
15,01867	3176
15,02933	3183
15,04000	3189
15,05067	3191
15,06133	3200
15,07200	3201
15,08267	3209
15,09333	3211
15,10400	3217
15,11467	3219
15,12533	3220
15,13600	3218
15,14667	3228
15,15733	3228
15,16800	3237
15,17867	3247
15,18933	3258
15,20000	3273
15,21067	3270
15,22133	3274
15,23200	3275
15,24267	3268
15,25333	3273
15,26400	3284
15,27467	3292
15,28533	3286
15,29600	3292
15,30667	3300
15,31733	3312
15,32800	3314
15,33867	3323
15,34933	3316
15,36000	3323
15,37067	3327
15,38133	3326
15,39200	3332
15,40267	3339
15,41333	3337
15,42400	3346
15,43467	3351
15,44533	3354
15,45600	3357
15,46667	3363
15,47733	3366
15,48800	3368
15,49867	3381
15,50933	3378
15,52000	3381
15,53067	3390
15,54133	3391
15,55200	3401
15,56267	3402
15,57333	3407
15,58400	3420
15,59467	3422
15,60533	3421
15,61600	3425
15,62667	3423
15,63733	3427
15,64800	3432
15,65867	3443
15,66933	3443
15,68000	3446
15,69067	3449
15,70133	3455
15,71200	3461
15,72267	3466
15,73333	3471
15,74400	3478
15,75467	3480
15,76533	3485
15,77600	3481
15,78667	3482
15,79733	3493
15,80800	3496
15,81867	3499
15,82933	3510
15,84000	3515
15,85067	3517
15,86133	3524
15,87200	3528
15,88267	3527
15,89333	3536
15,90400	3538
15,91467	3546
15,92533	3548
15,93600	3560
15,94667	3553
15,95733	3560
15,96800	3572
15,97867	3577
15,98933	3580
16,00000	3586
16,01067	3591
16,02133	3599
16,03200	3599
16,04267	3599
16,05333	3610
16,06400	3610
16,07467	3610
16,08533	3618
16,09600	3626
16,10667	3625
16,11733	3629
16,12800	3634
16,13867	3634
16,14933	3637
16,16000	3639
16,17067	3648
16,18133	3648
16,19200	3663
16,20267	3657
16,21333	3664
16,22400	3669
16,23467	3672
16,24533	3680
16,25600	3677
16,26667	3689
16,27733	3689
16,28800	3697
16,29867	3706
16,30933	3707
16,32000	3711
16,33067	3720
16,34133	3734
16,35200	3746
16,36267	3752
16,37333	3766
16,38400	3774
16,39467	3785
16,40533	3806
16,41600	3820
16,42667	3831
16,43733	3843
16,44800	3856
16,45867	3861
16,46933	3862
16,48000	3870
16,49067	3876
16,50133	3869
16,51200	3868
16,52267	3868
16,53333	3863
16,54400	3855
16,55467	3855
16,56533	3850
16,57600	3845
16,58667	3849
16,59733	3850
16,60800	3842
16,61867	3849
16,62933	3852
16,64000	3855
16,65067	3853
16,66133	3869
16,67200	3869
16,68267	3871
16,69333	3875
16,70400	3874
16,71467	3876
16,72533	3873
16,73600	3880
16,74667	3895
16,75733	3899
16,76800	3903
16,77867	3904
16,78933	3906
16,80000	3907
16,81067	3913
16,82133	3919
16,83200	3932
16,84267	3930
16,85333	3924
16,86400	3929
16,87467	3938
16,88533	3945
16,89600	3947
16,90667	3952
16,91733	3948
16,92800	3966
16,93867	3981
16,94933	3990
16,96000	3984
16,97067	3988
16,98133	3995
16,99200	4002
17,00267	4008
17,01333	4007
17,02400	4008
17,03467	4007
17,04533	4017
17,05600	4020
17,06667	4034
17,07733	4036
17,08800	4045
17,09867	4056
17,10933	4054
17,12000	4054
17,13067	4056
17,14133	4063
17,15200	4060
17,16267	4063
17,17333	4066
17,18400	4082
17,19467	4084
17,20533	4086
17,21600	4092
17,22667	4094
17,23733	4095
17,24800	4107
17,25867	4108
17,26933	4107
17,28000	4109
17,29067	4116
17,30133	4124
17,31200	4130
17,32267	4133
17,33333	4143
17,34400	4148
17,35467	4150
17,36533	4157
17,37600	4161
17,38667	4171
17,39733	4175
17,40800	4174
17,41867	4180
17,42933	4190
17,44000	4197
17,45067	4191
17,46133	4201
17,47200	4199
17,48267	4205
17,49333	4203
17,50400	4205
17,51467	4214
17,52533	4219
17,53600	4212
17,54667	4221
17,55733	4226
17,56800	4236
17,57867	4240
17,58933	4242
17,60000	4249
17,61067	4254
17,62133	4268
17,63200	4276
17,64267	4294
17,65333	4316
17,66400	4330
17,67467	4352
17,68533	4371
17,69600	4400
17,70667	4420
17,71733	4450
17,72800	4471
17,73867	4483
17,74933	4496
17,76000	4513
17,77067	4507
17,78133	4509
17,79200	4504
17,80267	4493
17,81333	4481
17,82400	4471
17,83467	4455
17,84533	4439
17,85600	4427
17,86667	4415
17,87733	4404
17,88800	4405
17,89867	4400
17,90933	4398
17,92000	4401
17,93067	4399
17,94133	4406
17,95200	4418
17,96267	4420
17,97333	4429
17,98400	4430
17,99467	4434
18,00533	4435
18,01600	4438
18,02667	4449
18,03733	4451
18,04800	4457
18,05867	4464
18,06933	4465
18,08000	4468
18,09067	4473
18,10133	4482
18,11200	4496
18,12267	4497
18,13333	4503
18,14400	4508
18,15467	4513
18,16533	4515
18,17600	4513
18,18667	4524
18,19733	4523
18,20800	4524
18,21867	4532
18,22933	4530
18,24000	4534
18,25067	4538
18,26133	4547
18,27200	4547
18,28267	4551
18,29333	4555
18,30400	4554
18,31467	4560
18,32533	4561
18,33600	4570
18,34667	4579
18,35733	4584
18,36800	4596
18,37867	4609
18,38933	4606
18,40000	4602
18,41067	4605
18,42133	4609
18,43200	4612
18,44267	4615
18,45333	4617
18,46400	4630
18,47467	4633
18,48533	4637
18,49600	4644
18,50667	4660
18,51733	4658
18,52800	4659
18,53867	4664
18,54933	4665
18,56000	4675
18,57067	4681
18,58133	4681
18,59200	4685
18,60267	4696
18,61333	4698
18,62400	4705
18,63467	4704
18,64533	4712
18,65600	4714
18,66667	4723
18,67733	4720
18,68800	4726
18,69867	4734
18,70933	4732
18,72000	4738
18,73067	4751
18,74133	4747
18,75200	4755
18,76267	4765
18,77333	4770
18,78400	4774
18,79467	4782
18,80533	4791
18,81600	4796
18,82667	4791
18,83733	4799
18,84800	4803
18,85867	4808
18,86933	4817
18,88000	4819
18,89067	4823
18,90133	4823
18,91200	4827
18,92267	4834
18,93333	4833
18,94400	4838
18,95467	4838
18,96533	4851
18,97600	4855
18,98667	4853
18,99733	4864
19,00800	4870
19,01867	4875
19,02933	4881
19,04000	4884
19,05067	4892
19,06133	4893
19,07200	4894
19,08267	4909
19,09333	4917
19,10400	4921
19,11467	4916
19,12533	4924
19,13600	4936
19,14667	4940
19,15733	4946
19,16800	4946
19,17867	4949
19,18933	4948
19,20000	4950
19,21067	4960
19,22133	4962
19,23200	4966
19,24267	4962
19,25333	4970
19,26400	4973
19,27467	4980
19,28533	4972
19,29600	4974
19,30667	4986
19,31733	4995
19,32800	4989
19,33867	4991
19,34933	4996
19,36000	5000
19,37067	5011
19,38133	5013
19,39200	5020
19,40267	5022
19,41333	5032
19,42400	5028
19,43467	5033
19,44533	5034
19,45600	5037
19,46667	5038
19,47733	5044
19,48800	5038
19,49867	5048
19,50933	5055
19,52000	5058
19,53067	5068
19,54133	5077
19,55200	5080
19,56267	5083
19,57333	5096
19,58400	5093
19,59467	5097
19,60533	5105
19,61600	5112
19,62667	5117
19,63733	5123
19,64800	5113
19,65867	5127
19,66933	5132
19,68000	5130
19,69067	5130
19,70133	5135
19,71200	5141
19,72267	5155
19,73333	5161
19,74400	5158
19,75467	5167
19,76533	5174
19,77600	5190
19,78667	5187
19,79733	5185
19,80800	5191
19,81867	5201
19,82933	5207
19,84000	5215
19,85067	5213
19,86133	5221
19,87200	5231
19,88267	5238
19,89333	5242
19,90400	5245
19,91467	5254
19,92533	5259
19,93600	5265
19,94667	5271
19,95733	5281
19,96800	5286
19,97867	5292
19,98933	5296
20,00000	5290
20,01067	5291
20,02133	5298
20,03200	5295
20,04267	5303
20,05333	5299
20,06400	5303
20,07467	5307
20,08533	5309
20,09600	5317
20,10667	5320
20,11733	5328
20,12800	5335
20,13867	5336
20,14933	5338
20,16000	5346
20,17067	5352
20,18133	5346
20,19200	5353
20,20267	5361
20,21333	5372
20,22400	5369
20,23467	5380
20,24533	5390
20,25600	5387
20,26667	5386
20,27733	5393
20,28800	5399
20,29867	5400
20,30933	5409
20,32000	5415
20,33067	5413
20,34133	5424
20,35200	5429
20,36267	5435
20,37333	5439
20,38400	5445
20,39467	5455
20,40533	5456
20,41600	5458
20,42667	5467
20,43733	5475
20,44800	5474
20,45867	5479
20,46933	5479
20,48000	5488
20,49067	5499
20,50133	5498
20,51200	5500
20,52267	5507
20,53333	5513
20,54400	5519
20,55467	5532
20,56533	5521
20,57600	5525
20,58667	5531
20,59733	5538
20,60800	5547
20,61867	5555
20,62933	5561
20,64000	5565
20,65067	5570
20,66133	5570
20,67200	5579
20,68267	5581
20,69333	5586
20,70400	5595
20,71467	5607
20,72533	5615
20,73600	5617
20,74667	5623
20,75733	5628
20,76800	5635
20,77867	5649
20,78933	5671
20,80000	5674
20,81067	5685
20,82133	5706
20,83200	5725
20,84267	5743
20,85333	5771
20,86400	5799
20,87467	5832
20,88533	5854
20,89600	5880
20,90667	5890
20,91733	5900
20,92800	5913
20,93867	5910
20,94933	5910
20,96000	5907
20,97067	5888
20,98133	5878
20,99200	5860
21,00267	5842
21,01333	5827
21,02400	5821
21,03467	5808
21,04533	5799
21,05600	5796
21,06667	5787
21,07733	5785
21,08800	5781
21,09867	5784
21,10933	5789
21,12000	5793
21,13067	5792
21,14133	5792
21,15200	5795
21,16267	5797
21,17333	5808
21,18400	5817
21,19467	5815
21,20533	5814
21,21600	5823
21,22667	5827
21,23733	5837
21,24800	5840
21,25867	5845
21,26933	5849
21,28000	5864
21,29067	5869
21,30133	5873
21,31200	5877
21,32267	5875
21,33333	5887
21,34400	5886
21,35467	5896
21,36533	5901
21,37600	5897
21,38667	5903
21,39733	5910
21,40800	5910
21,41867	5914
21,42933	5930
21,44000	5930
21,45067	5932
21,46133	5943
21,47200	5949
21,48267	5951
21,49333	5949
21,50400	5948
21,51467	5956
21,52533	5959
21,53600	5966
21,54667	5969
21,55733	5982
21,56800	5991
21,57867	5993
21,58933	5999
21,60000	6000
21,61067	6001
21,62133	6008
21,63200	6017
21,64267	6017
21,65333	6019
21,66400	6020
21,67467	6023
21,68533	6035
21,69600	6043
21,70667	6043
21,71733	6046
21,72800	6062
21,73867	6063
21,74933	6066
21,76000	6067
21,77067	6072
21,78133	6082
21,79200	6086
21,80267	6098
21,81333	6097
21,82400	6102
21,83467	6106
21,84533	6115
21,85600	6120
21,86667	6120
21,87733	6128
21,88800	6131
21,89867	6132
21,90933	6141
21,92000	6149
21,93067	6151
21,94133	6153
21,95200	6167
21,96267	6169
21,97333	6170
21,98400	6173
21,99467	6175
22,00533	6185
22,01600	6196
22,02667	6197
22,03733	6207
22,04800	6216
22,05867	6217
22,06933	6228
22,08000	6217
22,09067	6232
22,10133	6237
22,11200	6238
22,12267	6245
22,13333	6257
22,14400	6261
22,15467	6271
22,16533	6278
22,17600	6283
22,18667	6290
22,19733	6296
22,20800	6300
22,21867	6308
22,22933	6310
22,24000	6321
22,25067	6325
22,26133	6331
22,27200	6342
22,28267	6343
22,29333	6348
22,30400	6351
22,31467	6358
22,32533	6361
22,33600	6374
22,34667	6375
22,35733	6385
22,36800	6378
22,37867	6382
22,38933	6392
22,40000	6400
22,41067	6398
22,42133	6406
22,43200	6401
22,44267	6405
22,45333	6410
22,46400	6418
22,47467	6426
22,48533	6427
22,49600	6425
22,50667	6424
22,51733	6433
22,52800	6439
22,53867	6453
22,54933	6451
22,56000	6460
22,57067	6465
22,58133	6466
22,59200	6470
22,60267	6474
22,61333	6480
22,62400	6489
22,63467	6492
22,64533	6495
22,65600	6495
22,66667	6504
22,67733	6511
22,68800	6514
22,69867	6520
22,70933	6521
22,72000	6533
22,73067	6536
22,74133	6538
22,75200	6542
22,76267	6546
22,77333	6558
22,78400	6565
22,79467	6573
22,80533	6569
22,81600	6577
22,82667	6578
22,83733	6589
22,84800	6599
22,85867	6606
22,86933	6609
22,88000	6610
22,89067	6620
22,90133	6629
22,91200	6636
22,92267	6638
22,93333	6640
22,94400	6656
22,95467	6660
22,96533	6654
22,97600	6656
22,98667	6663
22,99733	6680
23,00800	6675
23,01867	6676
23,02933	6683
23,04000	6686
23,05067	6696
23,06133	6703
23,07200	6703
23,08267	6708
23,09333	6719
23,10400	6733
23,11467	6736
23,12533	6744
23,13600	6751
23,14667	6746
23,15733	6751
23,16800	6752
23,17867	6746
23,18933	6744
23,20000	6754
23,21067	6753
23,22133	6766
23,23200	6777
23,24267	6782
23,25333	6789
23,26400	6794
23,27467	6795
23,28533	6801
23,29600	6806
23,30667	6808
23,31733	6820
23,32800	6828
23,33867	6826
23,34933	6828
23,36000	6832
23,37067	6840
23,38133	6843
23,39200	6858
23,40267	6863
23,41333	6864
23,42400	6869
23,43467	6874
23,44533	6878
23,45600	6884
23,46667	6895
23,47733	6895
23,48800	6898
23,49867	6914
23,50933	6915
23,52000	6925
23,53067	6924
23,54133	6930
23,55200	6936
23,56267	6940
23,57333	6953
23,58400	6960
23,59467	6966
23,60533	6970
23,61600	6968
23,62667	6975
23,63733	6979
23,64800	6994
23,65867	6990
23,66933	6998
23,68000	7006
23,69067	7005
23,70133	7002
23,71200	7012
23,72267	7021
23,73333	7027
23,74400	7027
23,75467	7036
23,76533	7039
23,77600	7047
23,78667	7059
23,79733	7058
23,80800	7066
23,81867	7070
23,82933	7065
23,84000	7077
23,85067	7080
23,86133	7093
23,87200	7092
23,88267	7097
23,89333	7107
23,90400	7102
23,91467	7115
23,92533	7126
23,93600	7129
23,94667	7134
23,95733	7139
23,96800	7149
23,97867	7153
23,98933	7157
24,00000	7162
24,01067	7165
24,02133	7171
24,03200	7168
24,04267	7174
24,05333	7176
24,06400	7184
24,07467	7193
24,08533	7198
24,09600	7203
24,10667	7213
24,11733	7210
24,12800	7214
24,13867	7222
24,14933	7230
24,16000	7227
24,17067	7228
24,18133	7242
24,19200	7243
24,20267	7246
24,21333	7263
24,22400	7271
24,23467	7272
24,24533	7281
24,25600	7279
24,26667	7284
24,27733	7291
24,28800	7295
24,29867	7307
24,30933	7308
24,32000	7311
24,33067	7317
24,34133	7326
24,35200	7336
24,36267	7336
24,37333	7345
24,38400	7358
24,39467	7364
24,40533	7362
24,41600	7362
24,42667	7372
24,43733	7370
24,44800	7385
24,45867	7398
24,46933	7401
24,48000	7406
24,49067	7406
24,50133	7409
24,51200	7409
24,52267	7429
24,53333	7443
24,54400	7445
24,55467	7451
24,56533	7454
24,57600	7454
24,58667	7463
24,59733	7476
24,60800	7480
24,61867	7481
24,62933	7492
24,64000	7498
24,65067	7501
24,66133	7508
24,67200	7514
24,68267	7524
24,69333	7521
24,70400	7521
24,71467	7527
24,72533	7541
24,73600	7542
24,74667	7550
24,75733	7561
24,76800	7559
24,77867	7572
24,78933	7578
24,80000	7582
24,81067	7587
24,82133	7595
24,83200	7599
24,84267	7600
24,85333	7613
24,86400	7614
24,87467	7618
24,88533	7628
24,89600	7639
24,90667	7652
24,91733	7654
24,92800	7658
24,93867	7669
24,94933	7672
24,96000	7684
24,97067	7689
24,98133	7694
24,99200	7706
25,00267	7707
25,01333	7715
25,02400	7715
25,03467	7719
25,04533	7731
25,05600	7728
25,06667	7736
25,07733	7746
25,08800	7747
25,09867	7751
25,10933	7760
25,12000	7767
25,13067	7771
25,14133	7778
25,15200	7790
25,16267	7791
25,17333	7803
25,18400	7807
25,19467	7810
25,20533	7821
25,21600	7825
25,22667	7829
25,23733	7833
25,24800	7846
25,25867	7866
25,26933	7857
25,28000	7873
25,29067	7882
25,30133	7885
25,31200	7892
25,32267	7899
25,33333	7913
25,34400	7911
25,35467	7917
25,36533	7927
25,37600	7939
25,38667	7949
25,39733	7952
25,40800	7968
25,41867	7973
25,42933	7980
25,44000	7993
25,45067	8003
25,46133	8012
25,47200	8020
25,48267	8028
25,49333	8037
25,50400	8050
25,51467	8064
25,52533	8074
25,53600	8082
25,54667	8093
25,55733	8101
25,56800	8111
25,57867	8123
25,58933	8119
25,60000	8126
25,61067	8139
25,62133	8148
25,63200	8156
25,64267	8159
25,65333	8166
25,66400	8179
25,67467	8179
25,68533	8180
25,69600	8190
25,70667	8202
25,71733	8210
25,72800	8222
25,73867	8237
25,74933	8237
25,76000	8248
25,77067	8258
25,78133	8264
25,79200	8277
25,80267	8285
25,81333	8299
25,82400	8311
25,83467	8319
25,84533	8334
25,85600	8327
25,86667	8338
25,87733	8343
25,88800	8342
25,89867	8351
25,90933	8367
25,92000	8369
25,93067	8381
25,94133	8381
25,95200	8382
25,96267	8392
25,97333	8390
25,98400	8404
25,99467	8412
26,00533	8422
26,01600	8422
26,02667	8427
26,03733	8440
26,04800	8441
26,05867	8456
26,06933	8470
26,08000	8476
26,09067	8481
26,10133	8489
26,11200	8481
26,12267	8486
26,13333	8503
26,14400	8513
26,15467	8521
26,16533	8542
26,17600	8546
26,18667	8555
26,19733	8570
26,20800	8581
26,21867	8595
26,22933	8597
26,24000	8600
26,25067	8615
26,26133	8626
26,27200	8639
26,28267	8648
26,29333	8660
26,30400	8674
26,31467	8682
26,32533	8690
26,33600	8704
26,34667	8712
26,35733	8725
26,36800	8739
26,37867	8749
26,38933	8762
26,40000	8774
26,41067	8778
26,42133	8789
26,43200	8797
26,44267	8803
26,45333	8802
26,46400	8810
26,47467	8811
26,48533	8819
26,49600	8824
26,50667	8830
26,51733	8836
26,52800	8830
26,53867	8833
26,54933	8827
26,56000	8843
26,57067	8855
26,58133	8854
26,59200	8863
26,60267	8870
26,61333	8879
26,62400	8879
26,63467	8890
26,64533	8898
26,65600	8904
26,66667	8915
26,67733	8921
26,68800	8930
26,69867	8940
26,70933	8940
26,72000	8944
26,73067	8954
26,74133	8958
26,75200	8965
26,76267	8977
26,77333	8988
26,78400	8989
26,79467	9001
26,80533	9010
26,81600	9022
26,82667	9028
26,83733	9037
26,84800	9046
26,85867	9062
26,86933	9071
26,88000	9082
26,89067	9095
26,90133	9100
26,91200	9110
26,92267	9115
26,93333	9120
26,94400	9124
26,95467	9126
26,96533	9132
26,97600	9129
26,98667	9135
26,99733	9135
27,00800	9138
27,01867	9150
27,02933	9153
27,04000	9153
27,05067	9159
27,06133	9163
27,07200	9165
27,08267	9156
27,09333	9159
27,10400	9164
27,11467	9160
27,12533	9171
27,13600	9180
27,14667	9190
27,15733	9193
27,16800	9201
27,17867	9208
27,18933	9209
27,20000	9222
27,21067	9232
27,22133	9237
27,23200	9247
27,24267	9255
27,25333	9267
27,26400	9274
27,27467	9282
27,28533	9287
27,29600	9302
27,30667	9318
27,31733	9331
27,32800	9333
27,33867	9343
27,34933	9353
27,36000	9371
27,37067	9377
27,38133	9377
27,39200	9376
27,40267	9385
27,41333	9395
27,42400	9395
27,43467	9407
27,44533	9413
27,45600	9423
27,46667	9428
27,47733	9439
27,48800	9444
27,49867	9456
27,50933	9470
27,52000	9475
27,53067	9478
27,54133	9484
27,55200	9487
27,56267	9489
27,57333	9493
27,58400	9498
27,59467	9496
27,60533	9499
27,61600	9507
27,62667	9504
27,63733	9507
27,64800	9520
27,65867	9527
27,66933	9530
27,68000	9535
27,69067	9549
27,70133	9543
27,71200	9547
27,72267	9559
27,73333	9566
27,74400	9576
27,75467	9583
27,76533	9592
27,77600	9601
27,78667	9605
27,79733	9614
27,80800	9623
27,81867	9633
27,82933	9649
27,84000	9660
27,85067	9667
27,86133	9673
27,87200	9680
27,88267	9692
27,89333	9701
27,90400	9711
27,91467	9719
27,92533	9739
27,93600	9749
27,94667	9761
27,95733	9769
27,96800	9789
27,97867	9799
27,98933	9819
28,00000	9831
28,01067	9842
28,02133	9856
28,03200	9876
28,04267	9892
28,05333	9904
28,06400	9924
28,07467	9935
28,08533	9962
28,09600	9992
28,10667	10019
28,11733	10040
28,12800	10070
28,13867	10101
28,14933	10144
28,16000	10193
28,17067	10223
28,18133	10260
28,19200	10306
28,20267	10351
28,21333	10385
28,22400	10410
28,23467	10448
28,24533	10474
28,25600	10494
28,26667	10516
28,27733	10531
28,28800	10546
28,29867	10560
28,30933	10572
28,32000	10580
28,33067	10589
28,34133	10599
28,35200	10610
28,36267	10620
28,37333	10625
28,38400	10638
28,39467	10643
28,40533	10652
28,41600	10656
28,42667	10667
28,43733	10682
28,44800	10686
28,45867	10690
28,46933	10703
28,48000	10703
28,49067	10706
28,50133	10713
28,51200	10728
28,52267	10732
28,53333	10739
28,54400	10738
28,55467	10731
28,56533	10743
28,57600	10746
28,58667	10749
28,59733	10753
28,60800	10759
28,61867	10762
28,62933	10768
28,64000	10774
28,65067	10780
28,66133	10780
28,67200	10787
28,68267	10793
28,69333	10802
28,70400	10810
28,71467	10817
28,72533	10819
28,73600	10820
28,74667	10829
28,75733	10833
28,76800	10837
28,77867	10840
28,78933	10847
28,80000	10856
28,81067	10868
28,82133	10872
28,83200	10882
28,84267	10884
28,85333	10893
28,86400	10901
28,87467	10903
28,88533	10913
28,89600	10920
28,90667	10928
28,91733	10935
28,92800	10941
28,93867	10948
28,94933	10947
28,96000	10948
28,97067	10957
28,98133	10964
28,99200	10971
29,00267	10978
29,01333	10986
29,02400	10994
29,03467	10991
29,04533	11002
29,05600	11015
29,06667	11013
29,07733	11022
29,08800	11021
29,09867	11031
29,10933	11037
29,12000	11049
29,13067	11058
29,14133	11061
29,15200	11069
29,16267	11076
29,17333	11087
29,18400	11100
29,19467	11109
29,20533	11119
29,21600	11135
29,22667	11142
29,23733	11152
29,24800	11170
29,25867	11177
29,26933	11196
29,28000	11204
29,29067	11222
29,30133	11229
29,31200	11239
29,32267	11248
29,33333	11269
29,34400	11278
29,35467	11283
29,36533	11289
29,37600	11300
29,38667	11320
29,39733	11314
29,40800	11328
29,41867	11340
29,42933	11361
29,44000	11374
29,45067	11387
29,46133	11384
29,47200	11403
29,48267	11406
29,49333	11409
29,50400	11421
29,51467	11427
29,52533	11442
29,53600	11458
29,54667	11472
29,55733	11487
29,56800	11502
29,57867	11516
29,58933	11517
29,60000	11528
29,61067	11544
29,62133	11564
29,63200	11578
29,64267	11580
29,65333	11580
29,66400	11590
29,67467	11597
29,68533	11601
29,69600	11602
29,70667	11601
29,71733	11602
29,72800	11622
29,73867	11611
29,74933	11607
29,76000	11609
29,77067	11619
29,78133	11617
29,79200	11626
29,80267	11627
29,81333	11638
29,82400	11645
29,83467	11654
29,84533	11656
29,85600	11655
29,86667	11666
29,87733	11674
29,88800	11681
29,89867	11687
29,90933	11698
29,92000	11706
29,93067	11719
29,94133	11724
29,95200	11732
29,96267	11738
29,97333	11749
29,98400	11756
29,99467	11762
30,00533	11770
30,01600	11788
30,02667	11797
30,03733	11809
30,04800	11820
30,05867	11827
30,06933	11834
30,08000	11847
30,09067	11864
30,10133	11874
30,11200	11887
30,12267	11900
30,13333	11901
30,14400	11912
30,15467	11921
30,16533	11924
30,17600	11934
30,18667	11941
30,19733	11949
30,20800	11957
30,21867	11971
30,22933	11978
30,24000	11986
30,25067	12004
30,26133	12012
30,27200	12023
30,28267	12033
30,29333	12049
30,30400	12060
30,31467	12085
30,32533	12095
30,33600	12118
30,34667	12133
30,35733	12151
30,36800	12167
30,37867	12183
30,38933	12205
30,40000	12223
30,41067	12247
30,42133	12274
30,43200	12303
30,44267	12332
30,45333	12373
30,46400	12412
30,47467	12450
30,48533	12484
30,49600	12510
30,50667	12531
30,51733	12562
30,52800	12575
30,53867	12586
30,54933	12588
30,56000	12587
30,57067	12581
30,58133	12570
30,59200	12560
30,60267	12554
30,61333	12545
30,62400	12539
30,63467	12543
30,64533	12543
30,65600	12555
30,66667	12568
30,67733	12577
30,68800	12607
30,69867	12635
30,70933	12676
30,72000	12730
30,73067	12781
30,74133	12829
30,75200	12895
30,76267	12959
30,77333	13016
30,78400	13083
30,79467	13144
30,80533	13199
30,81600	13233
30,82667	13261
30,83733	13274
30,84800	13266
30,85867	13259
30,86933	13239
30,88000	13194
30,89067	13152
30,90133	13105
30,91200	13056
30,92267	13018
30,93333	12981
30,94400	12959
30,95467	12933
30,96533	12919
30,97600	12925
30,98667	12920
30,99733	12933
31,00800	12948
31,01867	12965
31,02933	12991
31,04000	13013
31,05067	13052
31,06133	13073
31,07200	13097
31,08267	13121
31,09333	13134
31,10400	13143
31,11467	13145
31,12533	13138
31,13600	13128
31,14667	13120
31,15733	13110
31,16800	13092
31,17867	13075
31,18933	13069
31,20000	13055
31,21067	13042
31,22133	13036
31,23200	13038
31,24267	13035
31,25333	13033
31,26400	13039
31,27467	13044
31,28533	13057
31,29600	13065
31,30667	13071
31,31733	13083
31,32800	13097
31,33867	13102
31,34933	13119
31,36000	13134
31,37067	13142
31,38133	13156
31,39200	13169
31,40267	13197
31,41333	13204
31,42400	13212
31,43467	13223
31,44533	13228
31,45600	13243
31,46667	13252
31,47733	13257
31,48800	13265
31,49867	13280
31,50933	13289
31,52000	13292
31,53067	13298
31,54133	13308
31,55200	13314
31,56267	13322
31,57333	13337
31,58400	13349
31,59467	13367
31,60533	13377
31,61600	13386
31,62667	13392
31,63733	13404
31,64800	13417
31,65867	13424
31,66933	13435
31,68000	13441
31,69067	13451
31,70133	13464
31,71200	13461
31,72267	13467
31,73333	13479
31,74400	13485
31,75467	13494
31,76533	13512
31,77600	13514
31,78667	13523
31,79733	13523
31,80800	13528
31,81867	13542
31,82933	13561
31,84000	13574
31,85067	13578
31,86133	13580
31,87200	13589
31,88267	13598
31,89333	13615
31,90400	13620
31,91467	13632
31,92533	13638
31,93600	13644
31,94667	13655
31,95733	13667
31,96800	13677
31,97867	13680
31,98933	13692
32,00000	13701
32,01067	13717
32,02133	13722
32,03200	13739
32,04267	13749
32,05333	13754
32,06400	13767
32,07467	13774
32,08533	13781
32,09600	13796
32,10667	13803
32,11733	13820
32,12800	13827
32,13867	13833
32,14933	13835
32,16000	13859
32,17067	13873
32,18133	13883
32,19200	13890
32,20267	13902
32,21333	13916
32,22400	13938
32,23467	13948
32,24533	13958
32,25600	13973
32,26667	13995
32,27733	14004
32,28800	14019
32,29867	14029
32,30933	14051
32,32000	14065
32,33067	14082
32,34133	14101
32,35200	14127
32,36267	14159
32,37333	14182
32,38400	14211
32,39467	14240
32,40533	14270
32,41600	14291
32,42667	14318
32,43733	14351
32,44800	14383
32,45867	14405
32,46933	14425
32,48000	14448
32,49067	14458
32,50133	14485
32,51200	14508
32,52267	14532
32,53333	14564
32,54400	14602
32,55467	14642
32,56533	14686
32,57600	14747
32,58667	14810
32,59733	14880
32,60800	14955
32,61867	15032
32,62933	15118
32,64000	15205
32,65067	15278
32,66133	15352
32,67200	15412
32,68267	15471
32,69333	15518
32,70400	15551
32,71467	15572
32,72533	15591
32,73600	15607
32,74667	15629
32,75733	15646
32,76800	15664
32,77867	15688
32,78933	15713
32,80000	15755
32,81067	15797
32,82133	15856
32,83200	15907
32,84267	15979
32,85333	16050
32,86400	16131
32,87467	16222
32,88533	16314
32,89600	16409
32,90667	16521
32,91733	16642
32,92800	16762
32,93867	16883
32,94933	17012
32,96000	17144
32,97067	17288
32,98133	17418
32,99200	17557
33,00267	17689
33,01333	17812
33,02400	17945
33,03467	18074
33,04533	18206
33,05600	18335
33,06667	18466
33,07733	18588
33,08800	18711
33,09867	18844
33,10933	18985
33,12000	19126
33,13067	19260
33,14133	19407
33,15200	19551
33,16267	19693
33,17333	19828
33,18400	19969
33,19467	20114
33,20533	20248
33,21600	20380
33,22667	20525
33,23733	20670
33,24800	20815
33,25867	20964
33,26933	21131
33,28000	21278
33,29067	21452
33,30133	21628
33,31200	21818
33,32267	22026
33,33333	22243
33,34400	22482
33,35467	22722
33,36533	22947
33,37600	23159
33,38667	23330
33,39733	23486
33,40800	23637
33,41867	23801
33,42933	24017
33,44000	24277
33,45067	24556
33,46133	24849
33,47200	25107
33,48267	25328
33,49333	25523
33,50400	25705
33,51467	25914
33,52533	26172
33,53600	26450
33,54667	26705
33,55733	26947
33,56800	27146
33,57867	27347
33,58933	27596
33,60000	27920
33,61067	28328
33,62133	28767
33,63200	29177
33,64267	29544
33,65333	29964
33,66400	30687
33,67467	31958
33,68533	33902
33,69600	36274
33,70667	38482
33,71733	39822
33,72800	39881
33,73867	38832
33,74933	37209
33,76000	35581
33,77067	34291
33,78133	33439
33,79200	32967
33,80267	32772
33,81333	32804
33,82400	32964
33,83467	33252
33,84533	33658
33,85600	34159
33,86667	34680
33,87733	35173
33,88800	35586
33,89867	35916
33,90933	36198
33,92000	36482
33,93067	36808
33,94133	37218
33,95200	37761
33,96267	38420
33,97333	39193
33,98400	40013
33,99467	40833
34,00533	41633
34,01600	42468
34,02667	43433
34,03733	44681
34,04800	46341
34,05867	48474
34,06933	50863
34,08000	52993
34,09067	54321
34,10133	54681
34,11200	54424
34,12267	54132
34,13333	54354
34,14400	55560
34,15467	58744
34,16533	66035
34,17600	80788
34,18667	106362
34,19733	146328
34,20800	204722
34,21867	286510
34,22933	399271
34,24000	551620
34,25067	751524
34,26133	992250
34,27200	1243144
34,28267	1430871
34,29333	1468727
34,30400	1327057
34,31467	1062316
34,32533	769249
34,33600	516404
34,34667	332206
34,35733	211276
34,36800	136915
34,37867	92872
34,38933	67488
34,40000	53248
34,41067	45469
34,42133	41320
34,43200	39176
34,44267	38110
34,45333	37618
34,46400	37384
34,47467	37201
34,48533	36978
34,49600	36699
34,50667	36437
34,51733	36208
34,52800	36030
34,53867	35910
34,54933	35811
34,56000	35751
34,57067	35705
34,58133	35662
34,59200	35625
34,60267	35620
34,61333	35614
34,62400	35629
34,63467	35669
34,64533	35720
34,65600	35766
34,66667	35807
34,67733	35843
34,68800	35888
34,69867	35948
34,70933	35994
34,72000	36055
34,73067	36110
34,74133	36190
34,75200	36283
34,76267	36374
34,77333	36468
34,78400	36588
34,79467	36715
34,80533	36855
34,81600	37001
34,82667	37142
34,83733	37299
34,84800	37463
34,85867	37652
34,86933	37820
34,88000	37966
34,89067	38077
34,90133	38172
34,91200	38263
34,92267	38343
34,93333	38436
34,94400	38557
34,95467	38725
34,96533	38957
34,97600	39340
34,98667	40216
34,99733	42422
35,00800	47294
35,01867	56360
35,02933	70615
35,04000	90125
35,05067	112891
35,06133	134527
35,07200	148684
35,08267	150831
35,09333	141613
35,10400	126017
35,11467	109465
35,12533	95189
35,13600	84009
35,14667	75745
35,15733	69856
35,16800	65942
35,17867	63476
35,18933	61895
35,20000	60597
35,21067	59218
35,22133	57722
35,23200	56249
35,24267	54983
35,25333	54011
35,26400	53343
35,27467	52875
35,28533	52478
35,29600	52049
35,30667	51578
35,31733	51091
35,32800	50652
35,33867	50280
35,34933	49996
35,36000	49767
35,37067	49506
35,38133	49100
35,39200	48542
35,40267	47915
35,41333	47412
35,42400	47165
35,43467	47383
35,44533	48320
35,45600	50132
35,46667	52500
35,47733	54664
35,48800	55901
35,49867	56020
35,50933	55341
35,52000	54251
35,53067	52960
35,54133	51616
35,55200	50468
35,56267	49826
35,57333	49862
35,58400	50419
35,59467	50989
35,60533	51093
35,61600	50608
35,62667	49746
35,63733	48796
35,64800	47953
35,65867	47240
35,66933	46638
35,68000	46149
35,69067	45765
35,70133	45472
35,71200	45263
35,72267	45133
35,73333	45062
35,74400	45009
35,75467	44989
35,76533	45009
35,77600	45065
35,78667	45195
35,79733	45434
35,80800	45846
35,81867	46394
35,82933	47002
35,84000	47509
35,85067	47797
35,86133	47855
35,87200	47746
35,88267	47560
35,89333	47340
35,90400	47083
35,91467	46741
35,92533	46374
35,93600	46003
35,94667	45664
35,95733	45373
35,96800	45139
35,97867	44966
35,98933	44877
36,00000	44869
36,01067	44915
36,02133	44995
36,03200	45055
36,04267	45076
36,05333	45030
36,06400	44926
36,07467	44808
36,08533	44680
36,09600	44598
36,10667	44558
36,11733	44562
36,12800	44625
36,13867	44724
36,14933	44833
36,16000	44979
36,17067	45132
36,18133	45282
36,19200	45421
36,20267	45518
36,21333	45604
36,22400	45699
36,23467	45809
36,24533	45909
36,25600	45966
36,26667	45973
36,27733	45937
36,28800	45943
36,29867	46071
36,30933	46360
36,32000	46758
36,33067	47103
36,34133	47250
36,35200	47126
36,36267	46796
36,37333	46403
36,38400	46046
36,39467	45748
36,40533	45513
36,41600	45338
36,42667	45187
36,43733	45059
36,44800	44967
36,45867	44905
36,46933	44871
36,48000	44857
36,49067	44858
36,50133	44847
36,51200	44855
36,52267	44856
36,53333	44865
36,54400	44876
36,55467	44896
36,56533	44923
36,57600	44946
36,58667	44957
36,59733	44973
36,60800	44986
36,61867	44989
36,62933	44974
36,64000	44965
36,65067	44966
36,66133	44976
36,67200	44995
36,68267	45026
36,69333	45062
36,70400	45097
36,71467	45120
36,72533	45123
36,73600	45130
36,74667	45145
36,75733	45202
36,76800	45295
36,77867	45372
36,78933	45422
36,80000	45423
36,81067	45367
36,82133	45266
36,83200	45157
36,84267	45056
36,85333	44983
36,86400	44929
36,87467	44888
36,88533	44866
36,89600	44844
36,90667	44831
36,91733	44809
36,92800	44811
36,93867	44816
36,94933	44834
36,96000	44852
36,97067	44915
36,98133	45017
36,99200	45184
37,00267	45404
37,01333	45650
37,02400	45892
37,03467	46059
37,04533	46113
37,05600	46057
37,06667	45916
37,07733	45712
37,08800	45503
37,09867	45305
37,10933	45141
37,12000	45030
37,13067	44938
37,14133	44888
37,15200	44854
37,16267	44857
37,17333	44874
37,18400	44922
37,19467	44999
37,20533	45099
37,21600	45185
37,22667	45252
37,23733	45272
37,24800	45241
37,25867	45168
37,26933	45093
37,28000	45010
37,29067	44926
37,30133	44874
37,31200	44841
37,32267	44828
37,33333	44806
37,34400	44798
37,35467	44788
37,36533	44776
37,37600	44781
37,38667	44777
37,39733	44774
37,40800	44792
37,41867	44787
37,42933	44799
37,44000	44809
37,45067	44825
37,46133	44838
37,47200	44853
37,48267	44865
37,49333	44873
37,50400	44884
37,51467	44888
37,52533	44893
37,53600	44895
37,54667	44893
37,55733	44878
37,56800	44868
37,57867	44846
37,58933	44840
37,60000	44838
37,61067	44835
37,62133	44832
37,63200	44838
37,64267	44836
37,65333	44840
37,66400	44841
37,67467	44840
37,68533	44839
37,69600	44841
37,70667	44844
37,71733	44854
37,72800	44869
37,73867	44884
37,74933	44916
37,76000	44945
37,77067	44962
37,78133	44995
37,79200	45015
37,80267	45023
37,81333	45027
37,82400	45019
37,83467	45012
37,84533	44984
37,85600	44973
37,86667	44948
37,87733	44940
37,88800	44935
37,89867	44929
37,90933	44921
37,92000	44921
37,93067	44920
37,94133	44918
37,95200	44920
37,96267	44922
37,97333	44921
37,98400	44936
37,99467	44945
38,00533	44946
38,01600	44937
38,02667	44939
38,03733	44942
38,04800	44949
38,05867	44945
38,06933	44953
38,08000	44959
38,09067	44966
38,10133	44957
38,11200	44961
38,12267	44973
38,13333	44972
38,14400	44975
38,15467	44980
38,16533	44984
38,17600	44988
38,18667	44985
38,19733	44996
38,20800	45000
38,21867	45002
38,22933	45017
38,24000	45031
38,25067	45041
38,26133	45046
38,27200	45046
38,28267	45055
38,29333	45056
38,30400	45058
38,31467	45054
38,32533	45058
38,33600	45038
38,34667	45035
38,35733	45027
38,36800	45021
38,37867	45021
38,38933	45024
38,40000	45028
38,41067	45030
38,42133	45033
38,43200	45039
38,44267	45043
38,45333	45040
38,46400	45043
38,47467	45047
38,48533	45053
38,49600	45052
38,50667	45053
38,51733	45068
38,52800	45066
38,53867	45071
38,54933	45078
38,56000	45090
38,57067	45094
38,58133	45097
38,59200	45098
38,60267	45104
38,61333	45114
38,62400	45115
38,63467	45120
38,64533	45143
38,65600	45147
38,66667	45159
38,67733	45179
38,68800	45191
38,69867	45208
38,70933	45219
38,72000	45237
38,73067	45269
38,74133	45306
38,75200	45369
38,76267	45475
38,77333	45658
38,78400	45969
38,79467	46464
38,80533	47247
38,81600	48401
38,82667	50063
38,83733	52329
38,84800	55247
38,85867	58758
38,86933	62679
38,88000	66693
38,89067	70344
38,90133	73167
38,91200	74771
38,92267	74915
38,93333	73598
38,94400	71025
38,95467	67614
38,96533	63815
38,97600	60053
38,98667	56652
38,99733	53795
39,00800	51547
39,01867	49866
39,02933	48657
39,04000	47813
39,05067	47227
39,06133	46826
39,07200	46533
39,08267	46315
39,09333	46144
39,10400	45999
39,11467	45860
39,12533	45746
39,13600	45621
39,14667	45504
39,15733	45386
39,16800	45263
39,17867	45141
39,18933	45006
39,20000	44865
39,21067	44718
39,22133	44571
39,23200	44404
39,24267	44237
39,25333	44065
39,26400	43884
39,27467	43684
39,28533	43488
39,29600	43280
39,30667	43075
39,31733	42855
39,32800	42618
39,33867	42385
39,34933	42148
39,36000	41907
39,37067	41654
39,38133	41397
39,39200	41169
39,40267	40938
39,41333	40673
39,42400	40445
39,43467	40219
39,44533	39998
39,45600	39763
39,46667	39541
39,47733	39337
39,48800	39110
39,49867	38863
39,50933	38602
39,52000	38330
39,53067	38030
39,54133	37692
39,55200	37325
39,56267	36942
39,57333	36551
39,58400	36168
39,59467	35790
39,60533	35409
39,61600	34992
39,62667	34489
39,63733	33885
39,64800	33172
39,65867	32327
39,66933	31369
39,68000	30319
39,69067	29206
39,70133	28039
39,71200	26820
39,72267	25592
39,73333	24360
39,74400	23100
39,75467	21828
39,76533	20554
39,77600	19312
39,78667	18115
39,79733	16995
39,80800	15928
39,81867	14916
39,82933	13967
39,84000	13094
39,85067	12267
39,86133	11497
39,87200	10788
39,88267	10136
39,89333	9532
39,90400	8994
39,91467	8488
39,92533	8012
39,93600	7589
39,94667	7196
39,95733	6835
39,96800	6500
39,97867	6196
39,98933	5904
40,00000	5641
40,01067	5389
40,02133	5162
40,03200	4946
40,04267	4757
40,05333	4568
40,06400	4384
40,07467	4221
40,08533	4072
40,09600	3917
40,10667	3780
40,11733	3649
40,12800	3522
40,13867	3400
40,14933	3282
40,16000	3178
40,17067	3077
40,18133	2965
40,19200	2870
40,20267	2791
40,21333	2696
40,22400	2614
40,23467	2541
40,24533	2464
40,25600	2382
40,26667	2311
40,27733	2249
40,28800	2171
40,29867	2117
40,30933	2064
40,32000	2006
40,33067	1948
40,34133	1899
40,35200	1839
40,36267	1789
40,37333	1736
40,38400	1689
40,39467	1648
40,40533	1609
40,41600	1565
40,42667	1532
40,43733	1495
40,44800	1450
40,45867	1409
40,46933	1372
40,48000	1343
40,49067	1304
40,50133	1277
40,51200	1234
40,52267	1209
40,53333	1178
40,54400	1148
40,55467	1113
40,56533	1083
40,57600	1050
40,58667	1022
40,59733	1001
40,60800	977
40,61867	950
40,62933	922
40,64000	897
40,65067	870
40,66133	841
40,67200	817
40,68267	790
40,69333	766
40,70400	738
40,71467	711
40,72533	694
40,73600	669
40,74667	646
40,75733	626
40,76800	601
40,77867	575
40,78933	548
40,80000	531
40,81067	500
40,82133	485
40,83200	460
40,84267	434
40,85333	418
40,86400	399
40,87467	374
40,88533	348
40,89600	342
40,90667	329
40,91733	302
40,92800	284
40,93867	269
40,94933	258
40,96000	239
40,97067	220
40,98133	199
40,99200	193
41,00267	181
41,01333	171
41,02400	159
41,03467	138
41,04533	126
41,05600	115
41,06667	103
41,07733	90
41,08800	78
41,09867	73
41,10933	64
41,12000	48
41,13067	39
41,14133	37
41,15200	25
41,16267	16
41,17333	9
41,18400	3
41,19467	-2
41,20533	-15
41,21600	-25
41,22667	-38
41,23733	-44
41,24800	-46
41,25867	-62
41,26933	-76
41,28000	-80
41,29067	-77
41,30133	-87
41,31200	-86
41,32267	-90
41,33333	-94
41,34400	-97
41,35467	-100
41,36533	-101
41,37600	-110
41,38667	-113
41,39733	-119
41,40800	-119
41,41867	-118
41,42933	-120
41,44000	-130
41,45067	-131
41,46133	-131
41,47200	-121
41,48267	-117
41,49333	-123
41,50400	-118
41,51467	-115
41,52533	-108
41,53600	-103
41,54667	-105
41,55733	-100
41,56800	-97
41,57867	-88
41,58933	-88
41,60000	-75
41,61067	-67
41,62133	-65
41,63200	-58
41,64267	-53
41,65333	-45
41,66400	-37
41,67467	-25
41,68533	-18
41,69600	-14
41,70667	-16
41,71733	-7
41,72800	4
41,73867	13
41,74933	23
41,76000	26
41,77067	24
41,78133	22
41,79200	33
41,80267	40
41,81333	50
41,82400	58
41,83467	61
41,84533	68
41,85600	75
41,86667	71
41,87733	78
41,88800	80
41,89867	91
41,90933	104
41,92000	109
41,93067	114
41,94133	119
41,95200	124
41,96267	134
41,97333	139
41,98400	140
41,99467	142
42,00533	151
42,01600	152
42,02667	156
42,03733	167
42,04800	175
42,05867	169
42,06933	178
42,08000	181
42,09067	185
42,10133	187
42,11200	193
42,12267	187
42,13333	196
42,14400	195
42,15467	199
42,16533	203
42,17600	205
42,18667	208
42,19733	205
42,20800	214
42,21867	213
42,22933	218
42,24000	221
42,25067	219
42,26133	217
42,27200	219
42,28267	221
42,29333	230
42,30400	233
42,31467	231
42,32533	228
42,33600	228
42,34667	224
42,35733	230
42,36800	235
42,37867	229
42,38933	227
42,40000	234
42,41067	236
42,42133	237
42,43200	232
42,44267	233
42,45333	244
42,46400	240
42,47467	234
42,48533	234
42,49600	239
42,50667	250
42,51733	245
42,52800	241
42,53867	253
42,54933	246
42,56000	249
42,57067	243
42,58133	244
42,59200	243
42,60267	251
42,61333	245
42,62400	250
42,63467	254
42,64533	252
42,65600	248
42,66667	253
42,67733	254
42,68800	252
42,69867	249
42,70933	256
42,72000	250
42,73067	252
42,74133	251
42,75200	241
42,76267	245
42,77333	242
42,78400	242
42,79467	248
42,80533	241
42,81600	240
42,82667	241
42,83733	247
42,84800	244
42,85867	248
42,86933	255
42,88000	242
42,89067	251
42,90133	255
42,91200	251
42,92267	244
42,93333	240
42,94400	248
42,95467	248
42,96533	245
42,97600	249
42,98667	254
42,99733	251
43,00800	258
43,01867	251
43,02933	255
43,04000	250
43,05067	249
43,06133	251
43,07200	248
43,08267	247
43,09333	247
43,10400	247
43,11467	247
43,12533	248
43,13600	247
43,14667	244
43,15733	243
43,16800	250
43,17867	248
43,18933	250
43,20000	253
43,21067	256
43,22133	253
43,23200	250
43,24267	251
43,25333	249
43,26400	248
43,27467	248
43,28533	256
43,29600	254
43,30667	253
43,31733	253
43,32800	254
43,33867	252
43,34933	252
43,36000	250
43,37067	254
43,38133	254
43,39200	254
43,40267	250
43,41333	249
43,42400	260
43,43467	249
43,44533	247
43,45600	247
43,46667	254
43,47733	260
43,48800	251
43,49867	242
43,50933	249
43,52000	242
43,53067	244
43,54133	243
43,55200	250
43,56267	248
43,57333	253
43,58400	254
43,59467	254
43,60533	251
43,61600	252
43,62667	250
43,63733	244
43,64800	247
43,65867	245
43,66933	247
43,68000	245
43,69067	243
43,70133	240
43,71200	241
43,72267	251
43,73333	246
43,74400	248
43,75467	250
43,76533	242
43,77600	242
43,78667	244
43,79733	237
43,80800	240
43,81867	233
43,82933	239
43,84000	247
43,85067	238
43,86133	243
43,87200	242
43,88267	241
43,89333	249
43,90400	247
43,91467	240
43,92533	241
43,93600	239
43,94667	241
43,95733	242
43,96800	242
43,97867	239
43,98933	242
44,00000	238
44,01067	243
44,02133	236
44,03200	236
44,04267	240
44,05333	232
44,06400	241
44,07467	234
44,08533	238
44,09600	238
44,10667	236
44,11733	235
44,12800	240
44,13867	235
44,14933	235
44,16000	237
44,17067	243
44,18133	233
44,19200	233
44,20267	239
44,21333	233
44,22400	231
44,23467	223
44,24533	222
44,25600	225
44,26667	224
44,27733	225
44,28800	235
44,29867	236
44,30933	230
44,32000	222
44,33067	223
44,34133	224
44,35200	227
44,36267	234
44,37333	231
44,38400	223
44,39467	221
44,40533	217
44,41600	217
44,42667	218
44,43733	227
44,44800	217
44,45867	217
44,46933	215
44,48000	220
44,49067	224
44,50133	226
44,51200	216
44,52267	211
44,53333	210
44,54400	205
44,55467	207
44,56533	213
44,57600	216
44,58667	214
44,59733	214
44,60800	216
44,61867	220
44,62933	219
44,64000	217
44,65067	214
44,66133	215
44,67200	215
44,68267	212
44,69333	209
44,70400	209
44,71467	221
44,72533	210
44,73600	214
44,74667	213
44,75733	202
44,76800	214
44,77867	212
44,78933	212
44,80000	210
44,81067	207
44,82133	209
44,83200	213
44,84267	210
44,85333	209
44,86400	207
44,87467	206
44,88533	201
44,89600	205
44,90667	211
44,91733	209
44,92800	221
44,93867	216
44,94933	216
44,96000	213
44,97067	211
44,98133	209
44,99200	214
45,00267	207
45,01333	211
45,02400	209
45,03467	206
45,04533	209
45,05600	216
45,06667	207
45,07733	202
45,08800	209
45,09867	211
45,10933	207
45,12000	215
45,13067	214
45,14133	211
45,15200	206
45,16267	212
45,17333	208
45,18400	216
45,19467	212
45,20533	215
45,21600	206
45,22667	201
45,23733	207
45,24800	206
45,25867	205
45,26933	206
45,28000	205
45,29067	203
45,30133	201
45,31200	204
45,32267	213
45,33333	207
45,34400	209
45,35467	210
45,36533	204
45,37600	209
45,38667	208
45,39733	203
45,40800	209
45,41867	208
45,42933	204
45,44000	206
45,45067	211
45,46133	206
45,47200	199
45,48267	196
45,49333	189
45,50400	192
45,51467	201
45,52533	206
45,53600	197
45,54667	201
45,55733	198
45,56800	198
45,57867	201
45,58933	201
45,60000	204
45,61067	199
45,62133	201
45,63200	198
45,64267	199
45,65333	192
45,66400	196
45,67467	206
45,68533	195
45,69600	195
45,70667	196
45,71733	198
45,72800	203
45,73867	201
45,74933	199
45,76000	198
45,77067	192
45,78133	188
45,79200	196
45,80267	202
45,81333	195
45,82400	193
45,83467	191
45,84533	194
45,85600	196
45,86667	188
45,87733	188
45,88800	185
45,89867	197
45,90933	187
45,92000	192
45,93067	190
45,94133	191
45,95200	184
45,96267	186
45,97333	192
45,98400	193
45,99467	187
46,00533	183
46,01600	184
46,02667	189
46,03733	181
46,04800	182
46,05867	184
46,06933	185
46,08000	190
46,09067	187
46,10133	187
46,11200	182
46,12267	188
46,13333	186
46,14400	179
46,15467	183
46,16533	180
46,17600	175
46,18667	181
46,19733	179
46,20800	175
46,21867	179
46,22933	178
46,24000	174
46,25067	175
46,26133	177
46,27200	173
46,28267	172
46,29333	174
46,30400	167
46,31467	175
46,32533	175
46,33600	179
46,34667	179
46,35733	182
46,36800	185
46,37867	180
46,38933	175
46,40000	171
46,41067	169
46,42133	166
46,43200	168
46,44267	164
46,45333	169
46,46400	169
46,47467	172
46,48533	173
46,49600	167
46,50667	173
46,51733	165
46,52800	166
46,53867	173
46,54933	171
46,56000	168
46,57067	165
46,58133	168
46,59200	160
46,60267	161
46,61333	165
46,62400	160
46,63467	166
46,64533	167
46,65600	170
46,66667	172
46,67733	165
46,68800	164
46,69867	165
46,70933	157
46,72000	160
46,73067	162
46,74133	160
46,75200	158
46,76267	161
46,77333	161
46,78400	160
46,79467	157
46,80533	158
46,81600	157
46,82667	170
46,83733	165
46,84800	159
46,85867	164
46,86933	162
46,88000	156
46,89067	158
46,90133	156
46,91200	158
46,92267	152
46,93333	158
46,94400	154
46,95467	152
46,96533	156
46,97600	165
46,98667	157
46,99733	152
47,00800	149
47,01867	160
47,02933	148
47,04000	155
47,05067	157
47,06133	153
47,07200	153
47,08267	143
47,09333	150
47,10400	148
47,11467	154
47,12533	153
47,13600	151
47,14667	153
47,15733	143
47,16800	147
47,17867	152
47,18933	143
47,20000	153
47,21067	148
47,22133	148
47,23200	148
47,24267	153
47,25333	160
47,26400	158
47,27467	156
47,28533	155
47,29600	151
47,30667	163
47,31733	155
47,32800	155
47,33867	149
47,34933	158
47,36000	149
47,37067	148
47,38133	151
47,39200	157
47,40267	157
47,41333	157
47,42400	161
47,43467	159
47,44533	155
47,45600	152
47,46667	158
47,47733	158
47,48800	157
47,49867	158
47,50933	155
47,52000	153
47,53067	154
47,54133	151
47,55200	150
47,56267	149
47,57333	144
47,58400	146
47,59467	145
47,60533	145
47,61600	146
47,62667	146
47,63733	145
47,64800	145
47,65867	141
47,66933	136
47,68000	140
47,69067	148
47,70133	146
47,71200	150
47,72267	143
47,73333	148
47,74400	144
47,75467	143
47,76533	152
47,77600	150
47,78667	158
47,79733	158
47,80800	154
47,81867	153
47,82933	144
47,84000	144
47,85067	149
47,86133	144
47,87200	146
47,88267	143
47,89333	150
47,90400	137
47,91467	142
47,92533	147
47,93600	144
47,94667	139
47,95733	140
47,96800	141
47,97867	143
47,98933	140
48,00000	142
48,01067	141
48,02133	145
48,03200	144
48,04267	146
48,05333	150
48,06400	150
48,07467	144
48,08533	144
48,09600	148
48,10667	150
48,11733	144
48,12800	142
48,13867	142
48,14933	137
48,16000	142
48,17067	139
48,18133	144
48,19200	142
48,20267	145
48,21333	138
48,22400	142
48,23467	141
48,24533	143
48,25600	137
48,26667	144
48,27733	138
48,28800	142
48,29867	139
48,30933	149
48,32000	144
48,33067	147
48,34133	144
48,35200	141
48,36267	134
48,37333	137
48,38400	135
48,39467	136
48,40533	138
48,41600	140
48,42667	133
48,43733	134
48,44800	133
48,45867	141
48,46933	140
48,48000	137
48,49067	142
48,50133	143
48,51200	139
48,52267	128
48,53333	142
48,54400	138
48,55467	136
48,56533	134
48,57600	135
48,58667	136
48,59733	129
48,60800	130
48,61867	131
48,62933	136
48,64000	132
48,65067	135
48,66133	130
48,67200	131
48,68267	129
48,69333	136
48,70400	132
48,71467	132
48,72533	131
48,73600	133
48,74667	124
48,75733	123
48,76800	127
48,77867	128
48,78933	127
48,80000	129
48,81067	135
48,82133	129
48,83200	121
48,84267	131
48,85333	120
48,86400	124
48,87467	122
48,88533	123
48,89600	114
48,90667	118
48,91733	115
48,92800	115
48,93867	124
48,94933	121
48,96000	118
48,97067	113
48,98133	121
48,99200	111
49,00267	115
49,01333	117
49,02400	122
49,03467	117
49,04533	114
49,05600	111
49,06667	114
49,07733	118
49,08800	117
49,09867	115
49,10933	112
49,12000	108
49,13067	113
49,14133	117
49,15200	111
49,16267	116
49,17333	108
49,18400	110
49,19467	111
49,20533	110
49,21600	114
49,22667	110
49,23733	108
49,24800	104
49,25867	102
49,26933	108
49,28000	113
49,29067	105
49,30133	107
49,31200	112
49,32267	112
49,33333	108
49,34400	113
49,35467	108
49,36533	116
49,37600	101
49,38667	96
49,39733	92
49,40800	106
49,41867	98
49,42933	103
49,44000	104
49,45067	102
49,46133	108
49,47200	100
49,48267	100
49,49333	105
49,50400	98
49,51467	93
49,52533	93
49,53600	91
49,54667	94
49,55733	99
49,56800	100
49,57867	99
49,58933	96
49,60000	98
49,61067	99
49,62133	96
49,63200	96
49,64267	94
49,65333	94
49,66400	99
49,67467	96
49,68533	91
49,69600	89
49,70667	92
49,71733	88
49,72800	89
49,73867	87
49,74933	92
49,76000	88
49,77067	88
49,78133	86
49,79200	90
49,80267	84
49,81333	81
49,82400	86
49,83467	87
49,84533	85
49,85600	90
49,86667	103
49,87733	93
49,88800	94
49,89867	89
49,90933	95
49,92000	98
49,93067	89
49,94133	93
49,95200	92
49,96267	96
49,97333	99
49,98400	94
49,99467	93
50,00533	97
50,01600	92


