[Header]
Application Name	LabSolutions
Version	5.73
Data File Name	C:\Users\Public\DADOS\Ricardo borges\RMBorges\26.02.25\MATE 2.lcd
Output Date	27/02/2025
Output Time	02:13:29

[File Information]
Type	Data File
Generated	27/02/2025 01:23:01
Generated by	System Administrator
Modified	27/02/2025 02:13:29
Modified by	System Administrator

[Sample Information]
Operator Name	System Administrator
Acquired	27/02/2025 01:23:25
Sample Type	0:Unknown
Level	0
Sample Name	MATE 2
Sample ID	MATE 2
ISTD Amount1	1
ISTD Amount2	1
ISTD Amount3	1
ISTD Amount4	1
ISTD Amount5	1
ISTD Amount6	1
ISTD Amount7	1
ISTD Amount8	1
ISTD Amount9	1
ISTD Amount10	1
ISTD Amount11	1
ISTD Amount12	1
ISTD Amount13	1
ISTD Amount14	1
ISTD Amount15	1
ISTD Amount16	1
ISTD Amount17	1
ISTD Amount18	1
ISTD Amount19	1
ISTD Amount20	1
ISTD Amount21	1
ISTD Amount22	1
ISTD Amount23	1
ISTD Amount24	1
ISTD Amount25	1
ISTD Amount26	1
ISTD Amount27	1
ISTD Amount28	1
ISTD Amount29	1
ISTD Amount30	1
ISTD Amount31	1
ISTD Amount32	1
Sample Amount	1
Dilution Factor	1
Vial#	21
Injection Volume	10

[Original Files]
Data File	C:\Users\Public\DADOS\Ricardo borges\RMBorges\26.02.25\MATE 2.lcd
Method File	C:\Users\Public\MÉTODOS\MÉTODOS HPLC AUTOMÁTICO\RICARDO BORGES\RMBorges\sciffee\experimental 1 - pool.lcm
Batch File	C:\Users\Public\DADOS\Ricardo borges\RMBorges\26.02.25\BATCH_RM_MIX POOL_26.02.2025.lcb
Report Format File	C:\LabSolutions\System\Default.lsr

[File Description]


[Configuration]
Instrument Name	HPLC analítico (automático)
Instrument #	1
Line #	1
# of Detectors	1
Detector ID	PDA
Detector Name	PDA
# of Channels	1

[Peak Table(PDA-Ch1)]
# of Peaks	94
Peak#	R.Time	I.Time	F.Time	Area	Height	A/H	Conc.	Mark	ID#	Name	k'	Plate #	Plate Ht.	Tailing	Resolution	Sep.Factor	Area Ratio	Height Ratio	Conc. %	Norm Conc.
1	1,585	1,120	1,707	166343	13240	12,563	0,000	   			0,000	246	609,129	0,000	0,000	0,000	0	0	0,000	0,000
2	1,768	1,707	1,803	111674	25751	4,337	0,000	 V 			0,115	709	211,457	0,000	0,546	0,000	0	0	0,000	0,000
3	1,846	1,803	2,005	223733	22634	9,885	0,000	 V 			0,165	51	2964,143	0,000	0,120	1,428	0	0	0,000	0,000
4	2,095	2,005	2,432	611118	47771	12,793	0,000	 V 			0,322	764	196,302	0,000	0,371	1,954	0	0	0,000	0,000
5	2,475	2,432	2,581	76632	9233	8,300	0,000	 V 			0,561	26	5760,016	0,000	0,339	1,745	0	0	0,000	0,000
6	2,633	2,581	2,752	72955	8004	9,115	0,000	 V 			0,661	78	1925,644	0,000	0,101	1,177	0	0	0,000	0,000
7	2,897	2,752	3,275	491446	47394	10,369	0,000	 V 			0,827	2432	61,690	0,000	0,370	1,252	0	0	0,000	0,000
8	3,402	3,275	3,477	71661	6538	10,960	0,000	 V 			1,146	253	592,841	0,000	0,927	1,385	0	0	0,000	0,000
9	3,517	3,477	3,627	39231	5979	6,562	0,000	 V 			1,219	442	339,025	0,000	0,151	1,063	0	0	0,000	0,000
10	3,838	3,627	3,979	99154	6393	15,510	0,000	 V 			1,421	754	198,990	0,000	0,522	1,166	0	0	0,000	0,000
11	4,132	3,979	4,341	383259	43533	8,804	0,000	 V 			1,607	5013	29,924	0,000	0,744	1,131	0	0	0,000	0,000
12	4,479	4,341	4,587	92492	7959	11,621	0,000	 V 			1,826	1350	111,071	0,000	0,962	1,136	0	0	0,000	0,000
13	4,686	4,587	4,875	98479	9128	10,789	0,000	 V 			1,956	2685	55,870	0,000	0,486	1,071	0	0	0,000	0,000
14	5,032	4,875	5,216	55923	3001	18,635	0,000	 V 			2,174	265	566,561	0,000	0,433	1,112	0	0	0,000	0,000
15	5,501	5,216	5,877	153755	5900	26,059	0,000	 V 			2,470	1019	147,205	0,000	0,487	1,136	0	0	0,000	0,000
16	6,049	5,877	6,197	114960	10156	11,319	0,000	 V 			2,816	5721	26,219	0,000	1,085	1,140	0	0	0,000	0,000
17	6,436	6,197	6,699	2876054	260152	11,055	0,000	 V 			3,060	7334	20,454	1,117	1,248	1,087	0	0	0,000	0,000
18	6,866	6,699	7,584	835781	49692	16,819	0,000	 V 			3,331	5260	28,515	0,000	1,267	1,089	0	0	0,000	0,000
19	7,864	7,584	7,936	79951	4263	18,757	0,000	 V 			3,961	56	2663,298	0,000	0,437	1,189	0	0	0,000	0,000
20	8,031	7,936	8,160	53698	4514	11,897	0,000	 V 			4,066	1046	143,360	0,000	0,064	1,027	0	0	0,000	0,000
21	8,613	8,160	8,757	152509	4765	32,009	0,000	 V 			4,433	320	468,210	0,000	0,399	1,090	0	0	0,000	0,000
22	9,013	8,757	9,205	134520	5995	22,439	0,000	 V 			4,686	1252	119,808	0,000	0,272	1,057	0	0	0,000	0,000
23	9,364	9,205	9,483	77090	4932	15,630	0,000	 V 			4,907	312	480,203	0,000	0,224	1,047	0	0	0,000	0,000
24	9,745	9,483	9,845	168404	10945	15,387	0,000	 V 			5,148	2877	52,134	0,000	0,268	1,049	0	0	0,000	0,000
25	9,919	9,845	10,037	102194	9926	10,296	0,000	 V 			5,257	1407	106,584	0,000	0,195	1,021	0	0	0,000	0,000
26	10,153	10,037	10,219	93556	9245	10,120	0,000	 V 			5,405	585	256,621	0,000	0,171	1,028	0	0	0,000	0,000
27	10,340	10,219	10,400	114794	11432	10,041	0,000	 V 			5,523	540	277,632	0,000	0,108	1,022	0	0	0,000	0,000
28	10,493	10,400	10,677	164015	13154	12,469	0,000	 V 			5,619	3581	41,890	0,000	0,124	1,018	0	0	0,000	0,000
29	10,709	10,677	10,848	55948	5732	9,761	0,000	 V 			5,756	14	11022,254	0,000	0,035	1,024	0	0	0,000	0,000
30	11,158	10,848	13,109	7500355	588236	12,751	0,000	SV 			6,039	19525	7,683	1,162	0,075	1,049	0	0	0,000	0,000
31	11,842	11,701	12,043	19977	1901	10,506	0,000	T  			6,470	25906	5,790	0,000	2,227	1,071	0	0	0,000	0,000
32	12,230	12,043	12,437	47528	4740	10,028	0,000	TV 			6,715	30719	4,883	0,000	1,355	1,038	0	0	0,000	0,000
33	12,699	12,459	12,896	42692	3034	14,070	0,000	T  			7,011	18078	8,297	0,973	1,427	1,044	0	0	0,000	0,000
34	13,045	12,896	13,109	2193	212	10,354	0,000	TV 			7,229	47709	3,144	0,000	1,124	1,031	0	0	0,000	0,000
35	13,315	13,109	14,037	3572780	205237	17,408	0,000	 V 			7,400	16057	9,341	2,877	0,819	1,024	0	0	0,000	0,000
36	14,249	14,037	14,571	631504	40611	15,550	0,000	 V 			7,989	26427	5,676	0,000	2,423	1,080	0	0	0,000	0,000
37	14,772	14,571	14,891	268595	18200	14,758	0,000	 V 			8,319	10225	14,671	0,000	1,118	1,041	0	0	0,000	0,000
38	15,035	14,891	15,200	281618	19429	14,495	0,000	 V 			8,485	10483	14,309	0,000	0,450	1,020	0	0	0,000	0,000
39	15,374	15,200	15,541	385474	30724	12,546	0,000	 V 			8,699	30393	4,935	0,000	0,721	1,025	0	0	0,000	0,000
40	15,676	15,541	15,851	244446	16335	14,965	0,000	 V 			8,889	9576	15,664	0,000	0,608	1,022	0	0	0,000	0,000
41	15,937	15,851	16,043	114765	10203	11,249	0,000	 V 			9,054	283	530,566	0,000	0,118	1,018	0	0	0,000	0,000
42	16,315	16,043	16,437	257266	11715	21,961	0,000	 V 			9,292	590	254,134	0,000	0,117	1,026	0	0	0,000	0,000
43	16,514	16,437	16,661	144028	11128	12,943	0,000	 V 			9,417	68	2213,440	0,000	0,037	1,013	0	0	0,000	0,000
44	16,915	16,661	17,227	384324	13188	29,142	0,000	 V 			9,671	1614	92,926	0,000	0,083	1,027	0	0	0,000	0,000
45	17,378	17,227	17,440	126389	10103	12,510	0,000	 V 			9,963	109	1375,063	0,000	0,111	1,030	0	0	0,000	0,000
46	17,759	17,440	17,856	272907	11766	23,194	0,000	 V 			10,203	327	458,730	0,000	0,072	1,024	0	0	0,000	0,000
47	17,930	17,856	18,005	102135	11477	8,899	0,000	 V 			10,311	33	4508,699	0,000	0,021	1,011	0	0	0,000	0,000
48	18,192	18,005	18,379	266166	12210	21,798	0,000	 V 			10,476	405	370,492	0,000	0,033	1,016	0	0	0,000	0,000
49	18,514	18,379	18,613	168216	12219	13,767	0,000	 V 			10,679	266	563,225	0,000	0,079	1,019	0	0	0,000	0,000
50	18,779	18,613	18,901	216956	13165	16,480	0,000	 V 			10,846	1000	150,001	0,000	0,077	1,016	0	0	0,000	0,000
51	19,222	18,901	19,456	466626	15548	30,012	0,000	 V 			11,126	1527	98,208	0,000	0,204	1,026	0	0	0,000	0,000
52	19,675	19,456	20,096	1179135	83937	14,048	0,000	 V 			11,412	63193	2,374	0,000	0,397	1,026	0	0	0,000	0,000
53	20,395	20,096	20,672	1695683	138781	12,218	0,000	 V 			11,866	73578	2,039	0,000	2,346	1,040	0	0	0,000	0,000
54	20,754	20,672	20,875	167784	14117	11,885	0,000	 V 			12,092	333	449,818	0,000	0,148	1,019	0	0	0,000	0,000
55	21,084	20,875	21,259	339473	16297	20,830	0,000	 V 			12,301	3743	40,079	0,000	0,111	1,017	0	0	0,000	0,000
56	21,611	21,259	21,899	1198865	75331	15,915	0,000	 V 			12,633	57231	2,621	0,000	0,606	1,027	0	0	0,000	0,000
57	22,084	21,899	22,229	273325	14274	19,148	0,000	 V 			12,932	395	379,370	0,000	0,197	1,024	0	0	0,000	0,000
58	22,310	22,229	22,411	137887	12891	10,696	0,000	 V 			13,074	203	738,854	0,000	0,042	1,011	0	0	0,000	0,000
59	22,474	22,411	22,549	102581	12467	8,228	0,000	 V 			13,177	186	806,432	0,000	0,025	1,008	0	0	0,000	0,000
60	22,782	22,549	23,147	2663839	228301	11,668	0,000	 V 			13,372	94475	1,588	0,000	0,090	1,015	0	0	0,000	0,000
61	23,265	23,147	23,445	219435	13271	16,535	0,000	 V 			13,677	3063	48,976	0,000	0,488	1,023	0	0	0,000	0,000
62	23,648	23,445	23,936	330997	13280	24,924	0,000	 V 			13,918	408	367,513	0,000	0,120	1,018	0	0	0,000	0,000
63	24,176	23,936	24,512	465384	20746	22,433	0,000	 V 			14,251	30057	4,991	0,000	0,202	1,024	0	0	0,000	0,000
64	24,674	24,512	24,832	195111	11095	17,586	0,000	 V 			14,565	4602	32,597	0,000	0,494	1,022	0	0	0,000	0,000
65	25,136	24,832	25,397	387922	15781	24,581	0,000	 V 			14,856	10004	14,993	0,000	0,375	1,020	0	0	0,000	0,000
66	25,616	25,397	25,696	171466	10974	15,625	0,000	 V 			15,159	2271	66,043	0,000	0,304	1,020	0	0	0,000	0,000
67	25,794	25,696	26,496	428343	11590	36,959	0,000	 V 			15,272	1104	135,896	0,000	0,068	1,007	0	0	0,000	0,000
68	26,989	26,496	27,307	395855	10911	36,282	0,000	 V 			16,026	18	8218,844	0,000	0,084	1,049	0	0	0,000	0,000
69	27,446	27,307	27,605	127316	8104	15,710	0,000	 V 			16,314	13851	10,830	0,000	0,035	1,018	0	0	0,000	0,000
70	27,707	27,605	28,171	182999	6586	27,786	0,000	 V 			16,478	731	205,320	0,000	0,104	1,010	0	0	0,000	0,000
71	28,331	28,171	28,544	98943	4614	21,444	0,000	 V 			16,872	648	231,500	0,000	0,146	1,024	0	0	0,000	0,000
72	28,669	28,544	28,747	51200	4270	11,990	0,000	 V 			17,085	373	402,553	0,000	0,065	1,013	0	0	0,000	0,000
73	28,811	28,747	29,312	117109	4139	28,291	0,000	 V 			17,175	170	884,189	0,000	0,019	1,005	0	0	0,000	0,000
74	29,646	29,312	30,059	122600	3018	40,619	0,000	 V 			17,702	1134	132,291	0,000	0,135	1,031	0	0	0,000	0,000
75	30,139	30,059	30,539	53435	2304	23,189	0,000	 V 			18,013	223	673,118	0,000	0,085	1,018	0	0	0,000	0,000
76	30,635	30,539	30,773	20083	1469	13,667	0,000	 V 			18,325	1010	148,566	0,000	0,083	1,017	0	0	0,000	0,000
77	30,918	30,773	31,125	27925	1614	17,300	0,000	 V 			18,504	18108	8,284	0,000	0,118	1,010	0	0	0,000	0,000
78	31,232	31,125	31,541	18070	875	20,652	0,000	 V 			18,702	284	528,968	0,000	0,075	1,011	0	0	0,000	0,000
79	31,733	31,541	31,989	8396	459	18,307	0,000	 V 			19,018	1679	89,319	0,000	0,095	1,017	0	0	0,000	0,000
80	32,659	32,480	32,779	9600	1023	9,384	0,000	   			19,603	279389	0,537	0,858	0,554	1,031	0	0	0,000	0,000
81	33,974	32,821	34,027	378708	8317	45,535	0,000	   			20,432	4527	33,131	0,000	1,160	1,042	0	0	0,000	0,000
82	34,089	34,027	34,165	64036	7965	8,040	0,000	 V 			20,504	1893	79,242	0,000	0,044	1,004	0	0	0,000	0,000
83	34,304	34,165	34,336	75239	7471	10,071	0,000	 V 			20,640	3556	42,184	0,000	0,079	1,007	0	0	0,000	0,000
84	34,497	34,336	34,603	118928	8026	14,818	0,000	 V 			20,762	12065	12,432	0,000	0,108	1,006	0	0	0,000	0,000
85	35,074	34,603	35,424	1078470	121251	8,895	0,000	 V 			21,126	680279	0,220	0,000	0,810	1,018	0	0	0,000	0,000
86	35,493	35,424	35,563	139432	20831	6,693	0,000	 V 			21,390	210347	0,713	0,000	1,745	1,012	0	0	0,000	0,000
87	35,598	35,563	35,744	122214	15005	8,145	0,000	 V 			21,457	64018	2,343	0,000	0,242	1,003	0	0	0,000	0,000
88	35,855	35,744	35,989	131640	10638	12,374	0,000	 V 			21,618	48967	3,063	0,000	0,423	1,008	0	0	0,000	0,000
89	36,042	35,989	36,107	48256	7068	6,827	0,000	 V 			21,736	1195	125,540	0,000	0,078	1,005	0	0	0,000	0,000
90	36,340	36,107	36,491	150654	7942	18,968	0,000	 V 			21,925	15437	9,717	0,000	0,112	1,009	0	0	0,000	0,000
91	36,792	36,491	36,917	99852	3913	25,517	0,000	 V 			22,210	541	277,155	0,000	0,120	1,013	0	0	0,000	0,000
92	37,050	36,917	37,163	35923	3213	11,180	0,000	 V 			22,373	138608	1,082	0,000	0,077	1,007	0	0	0,000	0,000
93	37,237	37,163	37,397	11606	1374	8,447	0,000	 V 			22,490	18995	7,897	0,000	0,253	1,005	0	0	0,000	0,000
94	38,924	38,677	40,000	1045451	36944	28,298	0,000	   			23,555	356266	0,421	3,092	2,515	1,047	0	0	0,000	0,000

[Compound Results(PDA)]
# of IDs	0

[PDA Multi Chromatogram(Ch1)]
# of Points	      4690
Interval(msec)	640
Start Time(min)	0
End Time(min)	50,016
Intensity Units	mAU
Intensity Multiplier	1
Type	MultiChrom
Wavelength(nm)	254
Bandwidth(nm)	4
R.Time (min)	Intensity
0,00000	0
0,01067	0
0,02133	0
0,03200	0
0,04267	0
0,05333	0
0,06400	0
0,07467	0
0,08533	0
0,09600	0
0,10667	0
0,11733	12
0,12800	4
0,13867	8
0,14933	-2
0,16000	0
0,17067	2
0,18133	6
0,19200	6
0,20267	7
0,21333	15
0,22400	0
0,23467	-1
0,24533	-3
0,25600	-6
0,26667	1
0,27733	6
0,28800	3
0,29867	5
0,30933	5
0,32000	-1
0,33067	-0
0,34133	-0
0,35200	-1
0,36267	-3
0,37333	1
0,38400	1
0,39467	8
0,40533	10
0,41600	2
0,42667	5
0,43733	-0
0,44800	1
0,45867	-3
0,46933	-3
0,48000	0
0,49067	-3
0,50133	1
0,51200	-5
0,52267	-2
0,53333	-3
0,54400	-1
0,55467	-7
0,56533	5
0,57600	-7
0,58667	-5
0,59733	-2
0,60800	-11
0,61867	-12
0,62933	-1
0,64000	-4
0,65067	-3
0,66133	-4
0,67200	1
0,68267	-2
0,69333	-1
0,70400	-2
0,71467	-11
0,72533	-12
0,73600	-3
0,74667	1
0,75733	-2
0,76800	-4
0,77867	-5
0,78933	-4
0,80000	-4
0,81067	-7
0,82133	-2
0,83200	-5
0,84267	-5
0,85333	-8
0,86400	-5
0,87467	-5
0,88533	3
0,89600	2
0,90667	-2
0,91733	-2
0,92800	3
0,93867	3
0,94933	-1
0,96000	0
0,97067	-1
0,98133	2
0,99200	-1
1,00267	-4
1,01333	-8
1,02400	-2
1,03467	0
1,04533	-2
1,05600	4
1,06667	3
1,07733	1
1,08800	2
1,09867	0
1,10933	-2
1,12000	-7
1,13067	-2
1,14133	4
1,15200	11
1,16267	14
1,17333	40
1,18400	67
1,19467	87
1,20533	115
1,21600	159
1,22667	194
1,23733	242
1,24800	283
1,25867	328
1,26933	382
1,28000	444
1,29067	513
1,30133	592
1,31200	697
1,32267	809
1,33333	947
1,34400	1111
1,35467	1274
1,36533	1443
1,37600	1610
1,38667	1779
1,39733	1966
1,40800	2181
1,41867	2437
1,42933	2746
1,44000	3123
1,45067	3576
1,46133	4152
1,47200	4923
1,48267	5803
1,49333	6700
1,50400	7521
1,51467	8318
1,52533	9177
1,53600	10132
1,54667	11184
1,55733	12205
1,56800	13010
1,57867	13441
1,58933	13476
1,60000	13203
1,61067	12788
1,62133	12402
1,63200	12086
1,64267	11753
1,65333	11253
1,66400	10503
1,67467	9587
1,68533	8731
1,69600	8206
1,70667	8197
1,71733	9001
1,72800	11177
1,73867	15594
1,74933	21492
1,76000	25547
1,77067	26082
1,78133	24418
1,79200	22535
1,80267	21561
1,81333	21592
1,82400	22147
1,83467	22741
1,84533	23005
1,85600	22805
1,86667	22161
1,87733	21232
1,88800	20180
1,89867	19141
1,90933	18271
1,92000	17648
1,93067	17291
1,94133	17042
1,95200	16726
1,96267	16230
1,97333	15577
1,98400	14888
1,99467	14365
2,00533	14176
2,01600	14644
2,02667	16345
2,03733	19929
2,04800	25729
2,05867	33017
2,06933	40256
2,08000	45677
2,09067	48273
2,10133	48002
2,11200	45577
2,12267	42071
2,13333	38469
2,14400	35457
2,15467	33287
2,16533	31844
2,17600	30818
2,18667	29872
2,19733	28839
2,20800	27731
2,21867	26687
2,22933	25774
2,24000	24933
2,25067	24005
2,26133	22908
2,27200	21586
2,28267	20140
2,29333	18630
2,30400	17156
2,31467	15756
2,32533	14508
2,33600	13434
2,34667	12547
2,35733	11841
2,36800	11287
2,37867	10817
2,38933	10410
2,40000	10082
2,41067	9832
2,42133	9692
2,43200	9660
2,44267	9711
2,45333	9805
2,46400	9890
2,47467	9933
2,48533	9893
2,49600	9778
2,50667	9594
2,51733	9360
2,52800	9119
2,53867	8866
2,54933	8639
2,56000	8470
2,57067	8366
2,58133	8344
2,59200	8396
2,60267	8512
2,61333	8653
2,62400	8756
2,63467	8786
2,64533	8714
2,65600	8543
2,66667	8293
2,67733	8007
2,68800	7715
2,69867	7449
2,70933	7222
2,72000	7051
2,73067	6938
2,74133	6885
2,75200	6875
2,76267	6912
2,77333	7022
2,78400	7280
2,79467	7895
2,80533	9191
2,81600	11577
2,82667	15383
2,83733	20786
2,84800	27395
2,85867	34468
2,86933	40885
2,88000	45680
2,89067	48201
2,90133	48314
2,91200	46303
2,92267	42724
2,93333	38226
2,94400	33434
2,95467	28808
2,96533	24706
2,97600	21259
2,98667	18512
2,99733	16367
3,00800	14687
3,01867	13330
3,02933	12194
3,04000	11180
3,05067	10294
3,06133	9529
3,07200	8905
3,08267	8418
3,09333	8044
3,10400	7781
3,11467	7583
3,12533	7425
3,13600	7317
3,14667	7232
3,15733	7159
3,16800	7094
3,17867	7023
3,18933	6944
3,20000	6860
3,21067	6769
3,22133	6671
3,23200	6580
3,24267	6489
3,25333	6419
3,26400	6365
3,27467	6341
3,28533	6345
3,29600	6372
3,30667	6424
3,31733	6518
3,32800	6649
3,33867	6821
3,34933	7018
3,36000	7217
3,37067	7412
3,38133	7585
3,39200	7683
3,40267	7722
3,41333	7673
3,42400	7572
3,43467	7400
3,44533	7194
3,45600	6994
3,46667	6843
3,47733	6767
3,48800	6805
3,49867	6956
3,50933	7163
3,52000	7223
3,53067	7004
3,54133	6524
3,55200	5924
3,56267	5350
3,57333	4887
3,58400	4534
3,59467	4307
3,60533	4157
3,61600	4079
3,62667	4059
3,63733	4080
3,64800	4124
3,65867	4195
3,66933	4291
3,68000	4407
3,69067	4543
3,70133	4717
3,71200	4905
3,72267	5132
3,73333	5391
3,74400	5678
3,75467	5984
3,76533	6316
3,77600	6640
3,78667	6960
3,79733	7249
3,80800	7493
3,81867	7673
3,82933	7784
3,84000	7804
3,85067	7751
3,86133	7634
3,87200	7452
3,88267	7229
3,89333	6989
3,90400	6733
3,91467	6486
3,92533	6255
3,93600	6058
3,94667	5888
3,95733	5758
3,96800	5671
3,97867	5634
3,98933	5681
4,00000	5867
4,01067	6299
4,02133	7129
4,03200	8540
4,04267	10768
4,05333	13981
4,06400	18268
4,07467	23436
4,08533	29158
4,09600	34829
4,10667	39764
4,11733	43326
4,12800	45099
4,13867	44926
4,14933	42967
4,16000	39601
4,17067	35356
4,18133	30702
4,19200	26106
4,20267	21860
4,21333	18171
4,22400	15098
4,23467	12618
4,24533	10704
4,25600	9256
4,26667	8184
4,27733	7413
4,28800	6855
4,29867	6463
4,30933	6200
4,32000	6034
4,33067	5949
4,34133	5949
4,35200	6007
4,36267	6140
4,37333	6345
4,38400	6620
4,39467	6981
4,40533	7394
4,41600	7837
4,42667	8317
4,43733	8765
4,44800	9149
4,45867	9456
4,46933	9646
4,48000	9705
4,49067	9626
4,50133	9427
4,51200	9134
4,52267	8766
4,53333	8349
4,54400	7935
4,55467	7557
4,56533	7251
4,57600	7070
4,58667	7028
4,59733	7162
4,60800	7471
4,61867	7937
4,62933	8526
4,64000	9186
4,65067	9847
4,66133	10410
4,67200	10810
4,68267	10982
4,69333	10932
4,70400	10644
4,71467	10157
4,72533	9536
4,73600	8841
4,74667	8129
4,75733	7441
4,76800	6802
4,77867	6242
4,78933	5770
4,80000	5388
4,81067	5075
4,82133	4827
4,83200	4653
4,84267	4527
4,85333	4451
4,86400	4416
4,87467	4411
4,88533	4431
4,89600	4472
4,90667	4530
4,91733	4599
4,92800	4665
4,93867	4728
4,94933	4800
4,96000	4856
4,97067	4914
4,98133	4953
4,99200	4985
5,00267	5011
5,01333	5025
5,02400	5034
5,03467	5036
5,04533	5028
5,05600	5010
5,06667	4984
5,07733	4958
5,08800	4921
5,09867	4891
5,10933	4844
5,12000	4792
5,13067	4733
5,14133	4685
5,15200	4640
5,16267	4601
5,17333	4554
5,18400	4529
5,19467	4508
5,20533	4505
5,21600	4504
5,22667	4516
5,23733	4528
5,24800	4561
5,25867	4605
5,26933	4654
5,28000	4697
5,29067	4747
5,30133	4804
5,31200	4863
5,32267	4930
5,33333	5010
5,34400	5108
5,35467	5240
5,36533	5386
5,37600	5575
5,38667	5786
5,39733	6032
5,40800	6304
5,41867	6589
5,42933	6901
5,44000	7208
5,45067	7491
5,46133	7744
5,47200	7941
5,48267	8088
5,49333	8167
5,50400	8180
5,51467	8132
5,52533	8033
5,53600	7902
5,54667	7743
5,55733	7594
5,56800	7472
5,57867	7385
5,58933	7329
5,60000	7298
5,61067	7295
5,62133	7291
5,63200	7275
5,64267	7217
5,65333	7128
5,66400	7000
5,67467	6844
5,68533	6668
5,69600	6471
5,70667	6283
5,71733	6101
5,72800	5939
5,73867	5780
5,74933	5647
5,76000	5527
5,77067	5429
5,78133	5337
5,79200	5266
5,80267	5189
5,81333	5132
5,82400	5069
5,83467	5008
5,84533	4966
5,85600	4917
5,86667	4885
5,87733	4873
5,88800	4889
5,89867	4957
5,90933	5077
5,92000	5301
5,93067	5619
5,94133	6063
5,95200	6632
5,96267	7335
5,97333	8154
5,98400	9037
5,99467	9951
6,00533	10825
6,01600	11598
6,02667	12204
6,03733	12589
6,04800	12722
6,05867	12611
6,06933	12273
6,08000	11739
6,09067	11070
6,10133	10311
6,11200	9522
6,12267	8769
6,13333	8067
6,14400	7444
6,15467	6912
6,16533	6505
6,17600	6205
6,18667	6033
6,19733	6011
6,20800	6183
6,21867	6609
6,22933	7395
6,24000	8687
6,25067	10685
6,26133	13679
6,27200	17996
6,28267	24040
6,29333	32218
6,30400	42944
6,31467	56594
6,32533	73254
6,33600	92911
6,34667	115102
6,35733	139266
6,36800	164281
6,37867	189000
6,38933	211945
6,40000	231866
6,41067	247517
6,42133	258061
6,43200	262919
6,44267	261950
6,45333	255426
6,46400	243896
6,47467	228242
6,48533	209534
6,49600	188747
6,50667	167060
6,51733	145380
6,52800	124639
6,53867	105331
6,54933	87959
6,56000	72692
6,57067	59645
6,58133	48689
6,59200	39681
6,60267	32372
6,61333	26551
6,62400	21976
6,63467	18417
6,64533	15669
6,65600	13590
6,66667	12069
6,67733	11015
6,68800	10381
6,69867	10166
6,70933	10409
6,72000	11173
6,73067	12530
6,74133	14580
6,75200	17359
6,76267	20859
6,77333	24975
6,78400	29536
6,79467	34288
6,80533	38922
6,81600	43166
6,82667	46785
6,83733	49603
6,84800	51532
6,85867	52539
6,86933	52685
6,88000	52062
6,89067	50799
6,90133	49014
6,91200	46840
6,92267	44392
6,93333	41792
6,94400	39112
6,95467	36455
6,96533	33857
6,97600	31376
6,98667	29034
6,99733	26853
7,00800	24845
7,01867	23012
7,02933	21361
7,04000	19892
7,05067	18585
7,06133	17436
7,07200	16453
7,08267	15609
7,09333	14888
7,10400	14289
7,11467	13786
7,12533	13354
7,13600	12964
7,14667	12621
7,15733	12283
7,16800	11940
7,17867	11596
7,18933	11246
7,20000	10883
7,21067	10510
7,22133	10153
7,23200	9793
7,24267	9458
7,25333	9131
7,26400	8838
7,27467	8569
7,28533	8334
7,29600	8128
7,30667	7960
7,31733	7821
7,32800	7710
7,33867	7617
7,34933	7552
7,36000	7479
7,37067	7428
7,38133	7384
7,39200	7338
7,40267	7293
7,41333	7254
7,42400	7218
7,43467	7170
7,44533	7118
7,45600	7072
7,46667	7034
7,47733	6992
7,48800	6950
7,49867	6917
7,50933	6885
7,52000	6845
7,53067	6813
7,54133	6798
7,55200	6780
7,56267	6776
7,57333	6775
7,58400	6769
7,59467	6770
7,60533	6787
7,61600	6797
7,62667	6820
7,63733	6841
7,64800	6863
7,65867	6881
7,66933	6899
7,68000	6910
7,69067	6935
7,70133	6953
7,71200	6963
7,72267	6991
7,73333	7022
7,74400	7055
7,75467	7103
7,76533	7160
7,77600	7220
7,78667	7308
7,79733	7392
7,80800	7484
7,81867	7573
7,82933	7647
7,84000	7711
7,85067	7759
7,86133	7776
7,87200	7770
7,88267	7735
7,89333	7693
7,90400	7639
7,91467	7580
7,92533	7534
7,93600	7511
7,94667	7526
7,95733	7580
7,96800	7642
7,97867	7740
7,98933	7850
8,00000	7948
8,01067	8041
8,02133	8099
8,03200	8114
8,04267	8092
8,05333	8011
8,06400	7896
8,07467	7759
8,08533	7609
8,09600	7434
8,10667	7279
8,11733	7146
8,12800	7046
8,13867	6985
8,14933	6956
8,16000	6956
8,17067	6999
8,18133	7061
8,19200	7125
8,20267	7200
8,21333	7271
8,22400	7327
8,23467	7374
8,24533	7405
8,25600	7431
8,26667	7438
8,27733	7456
8,28800	7471
8,29867	7498
8,30933	7534
8,32000	7585
8,33067	7653
8,34133	7733
8,35200	7822
8,36267	7917
8,37333	8007
8,38400	8095
8,39467	8173
8,40533	8231
8,41600	8291
8,42667	8327
8,43733	8356
8,44800	8381
8,45867	8397
8,46933	8414
8,48000	8409
8,49067	8417
8,50133	8432
8,51200	8443
8,52267	8457
8,53333	8466
8,54400	8494
8,55467	8526
8,56533	8565
8,57600	8596
8,58667	8628
8,59733	8654
8,60800	8669
8,61867	8669
8,62933	8657
8,64000	8629
8,65067	8590
8,66133	8540
8,67200	8484
8,68267	8423
8,69333	8361
8,70400	8309
8,71467	8258
8,72533	8220
8,73600	8202
8,74667	8192
8,75733	8189
8,76800	8196
8,77867	8223
8,78933	8256
8,80000	8313
8,81067	8372
8,82133	8440
8,83200	8528
8,84267	8619
8,85333	8731
8,86400	8840
8,87467	8955
8,88533	9076
8,89600	9194
8,90667	9316
8,91733	9427
8,92800	9549
8,93867	9651
8,94933	9754
8,96000	9846
8,97067	9935
8,98133	10012
8,99200	10066
9,00267	10097
9,01333	10109
9,02400	10095
9,03467	10043
9,04533	9968
9,05600	9863
9,06667	9725
9,07733	9580
9,08800	9417
9,09867	9253
9,10933	9078
9,12000	8902
9,13067	8738
9,14133	8590
9,15200	8459
9,16267	8346
9,17333	8249
9,18400	8176
9,19467	8144
9,20533	8136
9,21600	8156
9,22667	8211
9,23733	8297
9,24800	8409
9,25867	8525
9,26933	8648
9,28000	8772
9,29067	8881
9,30133	8985
9,31200	9065
9,32267	9128
9,33333	9175
9,34400	9207
9,35467	9220
9,36533	9229
9,37600	9216
9,38667	9201
9,39733	9183
9,40800	9147
9,41867	9114
9,42933	9076
9,44000	9046
9,45067	9022
9,46133	9004
9,47200	8993
9,48267	8990
9,49333	8995
9,50400	9003
9,51467	9024
9,52533	9046
9,53600	9090
9,54667	9131
9,55733	9193
9,56800	9276
9,57867	9401
9,58933	9576
9,60000	9800
9,61067	10087
9,62133	10440
9,63200	10867
9,64267	11348
9,65333	11882
9,66400	12449
9,67467	13043
9,68533	13624
9,69600	14169
9,70667	14636
9,71733	15018
9,72800	15285
9,73867	15426
9,74933	15441
9,76000	15346
9,77067	15155
9,78133	14887
9,79200	14586
9,80267	14278
9,81333	14000
9,82400	13785
9,83467	13651
9,84533	13614
9,85600	13661
9,86667	13788
9,87733	13973
9,88800	14152
9,89867	14340
9,90933	14471
9,92000	14512
9,93067	14453
9,94133	14301
9,95200	14055
9,96267	13729
9,97333	13357
9,98400	12968
9,99467	12600
10,00533	12286
10,01600	12044
10,02667	11898
10,03733	11859
10,04800	11911
10,05867	12065
10,06933	12295
10,08000	12582
10,09067	12876
10,10133	13175
10,11200	13446
10,12267	13674
10,13333	13838
10,14400	13933
10,15467	13954
10,16533	13915
10,17600	13835
10,18667	13735
10,19733	13640
10,20800	13576
10,21867	13561
10,22933	13625
10,24000	13773
10,25067	14003
10,26133	14300
10,27200	14648
10,28267	15032
10,29333	15397
10,30400	15729
10,31467	15992
10,32533	16161
10,33600	16238
10,34667	16225
10,35733	16139
10,36800	16015
10,37867	15895
10,38933	15819
10,40000	15812
10,41067	15903
10,42133	16102
10,43200	16396
10,44267	16760
10,45333	17134
10,46400	17502
10,47467	17808
10,48533	17999
10,49600	18040
10,50667	17905
10,51733	17601
10,52800	17130
10,53867	16524
10,54933	15806
10,56000	15051
10,57067	14277
10,58133	13519
10,59200	12849
10,60267	12252
10,61333	11767
10,62400	11387
10,63467	11099
10,64533	10901
10,65600	10785
10,66667	10732
10,67733	10711
10,68800	10720
10,69867	10724
10,70933	10731
10,72000	10718
10,73067	10704
10,74133	10675
10,75200	10637
10,76267	10589
10,77333	10523
10,78400	10461
10,79467	10392
10,80533	10318
10,81600	10249
10,82667	10183
10,83733	10133
10,84800	10095
10,85867	10099
10,86933	10145
10,88000	10247
10,89067	10443
10,90133	10764
10,91200	11259
10,92267	12008
10,93333	13156
10,94400	14910
10,95467	17560
10,96533	21596
10,97600	27610
10,98667	36442
10,99733	48971
11,00800	66267
11,01867	89171
11,02933	118562
11,04000	154565
11,05067	197102
11,06133	245075
11,07200	297247
11,08267	351411
11,09333	405305
11,10400	456328
11,11467	501966
11,12533	540163
11,13600	568887
11,14667	586883
11,15733	593469
11,16800	588502
11,17867	572777
11,18933	547346
11,20000	514065
11,21067	474707
11,22133	431606
11,23200	386551
11,24267	341623
11,25333	298081
11,26400	257225
11,27467	219789
11,28533	186229
11,29600	156788
11,30667	131284
11,31733	109581
11,32800	91305
11,33867	76152
11,34933	63641
11,36000	53416
11,37067	45066
11,38133	38307
11,39200	32837
11,40267	28438
11,41333	24888
11,42400	22053
11,43467	19807
11,44533	18025
11,45600	16622
11,46667	15526
11,47733	14685
11,48800	14044
11,49867	13561
11,50933	13204
11,52000	12937
11,53067	12744
11,54133	12594
11,55200	12474
11,56267	12368
11,57333	12272
11,58400	12178
11,59467	12080
11,60533	11986
11,61600	11893
11,62667	11784
11,63733	11679
11,64800	11573
11,65867	11485
11,66933	11395
11,68000	11328
11,69067	11285
11,70133	11277
11,71200	11298
11,72267	11357
11,73333	11463
11,74400	11612
11,75467	11797
11,76533	11995
11,77600	12207
11,78667	12411
11,79733	12607
11,80800	12768
11,81867	12893
11,82933	12972
11,84000	13005
11,85067	12987
11,86133	12930
11,87200	12833
11,88267	12709
11,89333	12570
11,90400	12414
11,91467	12265
11,92533	12117
11,93600	11969
11,94667	11831
11,95733	11704
11,96800	11592
11,97867	11494
11,98933	11400
12,00000	11325
12,01067	11266
12,02133	11205
12,03200	11177
12,04267	11158
12,05333	11153
12,06400	11175
12,07467	11226
12,08533	11312
12,09600	11446
12,10667	11622
12,11733	11858
12,12800	12153
12,13867	12503
12,14933	12903
12,16000	13338
12,17067	13792
12,18133	14237
12,19200	14637
12,20267	14976
12,21333	15223
12,22400	15353
12,23467	15362
12,24533	15245
12,25600	15021
12,26667	14696
12,27733	14297
12,28800	13848
12,29867	13374
12,30933	12913
12,32000	12472
12,33067	12081
12,34133	11732
12,35200	11434
12,36267	11186
12,37333	10985
12,38400	10812
12,39467	10670
12,40533	10565
12,41600	10474
12,42667	10401
12,43733	10366
12,44800	10350
12,45867	10372
12,46933	10424
12,48000	10507
12,49067	10616
12,50133	10776
12,51200	10955
12,52267	11159
12,53333	11392
12,54400	11643
12,55467	11908
12,56533	12158
12,57600	12423
12,58667	12670
12,59733	12910
12,60800	13128
12,61867	13321
12,62933	13499
12,64000	13670
12,65067	13798
12,66133	13917
12,67200	14009
12,68267	14077
12,69333	14118
12,70400	14119
12,71467	14090
12,72533	14030
12,73600	13936
12,74667	13814
12,75733	13660
12,76800	13482
12,77867	13277
12,78933	13071
12,80000	12868
12,81067	12674
12,82133	12482
12,83200	12315
12,84267	12163
12,85333	12037
12,86400	11939
12,87467	11870
12,88533	11834
12,89600	11819
12,90667	11822
12,91733	11845
12,92800	11876
12,93867	11915
12,94933	11963
12,96000	12023
12,97067	12078
12,98133	12133
12,99200	12185
13,00267	12228
13,01333	12277
13,02400	12300
13,03467	12315
13,04533	12324
13,05600	12328
13,06667	12325
13,07733	12304
13,08800	12302
13,09867	12298
13,10933	12302
13,12000	12322
13,13067	12366
13,14133	12449
13,15200	12657
13,16267	13156
13,17333	14365
13,18400	17121
13,19467	22748
13,20533	32967
13,21600	49013
13,22667	70975
13,23733	97256
13,24800	125011
13,25867	151243
13,26933	173471
13,28000	190554
13,29067	202213
13,30133	208954
13,31200	211597
13,32267	211022
13,33333	208029
13,34400	203238
13,35467	197231
13,36533	190314
13,37600	182834
13,38667	174962
13,39733	166943
13,40800	158864
13,41867	150846
13,42933	142980
13,44000	135330
13,45067	127950
13,46133	120858
13,47200	114094
13,48267	107638
13,49333	101521
13,50400	95709
13,51467	90211
13,52533	84987
13,53600	80060
13,54667	75380
13,55733	70980
13,56800	66833
13,57867	62929
13,58933	59288
13,60000	55900
13,61067	52752
13,62133	49825
13,63200	47140
13,64267	44674
13,65333	42431
13,66400	40365
13,67467	38492
13,68533	36794
13,69600	35235
13,70667	33801
13,71733	32472
13,72800	31232
13,73867	30075
13,74933	28981
13,76000	27952
13,77067	26975
13,78133	26038
13,79200	25165
13,80267	24350
13,81333	23582
13,82400	22865
13,83467	22202
13,84533	21573
13,85600	20990
13,86667	20425
13,87733	19900
13,88800	19395
13,89867	18912
13,90933	18452
13,92000	18018
13,93067	17622
13,94133	17244
13,95200	16910
13,96267	16601
13,97333	16333
13,98400	16094
13,99467	15894
14,00533	15741
14,01600	15613
14,02667	15529
14,03733	15492
14,04800	15497
14,05867	15585
14,06933	15764
14,08000	16057
14,09067	16531
14,10133	17216
14,11200	18177
14,12267	19456
14,13333	21120
14,14400	23198
14,15467	25694
14,16533	28570
14,17600	31733
14,18667	35060
14,19733	38334
14,20800	41378
14,21867	43968
14,22933	45934
14,24000	47128
14,25067	47458
14,26133	46930
14,27200	45620
14,28267	43665
14,29333	41240
14,30400	38504
14,31467	35691
14,32533	32954
14,33600	30428
14,34667	28194
14,35733	26326
14,36800	24805
14,37867	23639
14,38933	22766
14,40000	22147
14,41067	21687
14,42133	21355
14,43200	21056
14,44267	20755
14,45333	20419
14,46400	20034
14,47467	19603
14,48533	19143
14,49600	18664
14,50667	18197
14,51733	17784
14,52800	17430
14,53867	17144
14,54933	16933
14,56000	16807
14,57067	16756
14,58133	16773
14,59200	16855
14,60267	16981
14,61333	17162
14,62400	17389
14,63467	17672
14,64533	18017
14,65600	18452
14,66667	18972
14,67733	19594
14,68800	20305
14,69867	21105
14,70933	21962
14,72000	22819
14,73067	23634
14,74133	24349
14,75200	24892
14,76267	25227
14,77333	25320
14,78400	25158
14,79467	24770
14,80533	24193
14,81600	23499
14,82667	22739
14,83733	21994
14,84800	21320
14,85867	20776
14,86933	20398
14,88000	20174
14,89067	20146
14,90133	20281
14,91200	20583
14,92267	21015
14,93333	21556
14,94400	22180
14,95467	22862
14,96533	23568
14,97600	24282
14,98667	24957
14,99733	25570
15,00800	26089
15,01867	26470
15,02933	26675
15,04000	26687
15,05067	26492
15,06133	26081
15,07200	25468
15,08267	24686
15,09333	23775
15,10400	22787
15,11467	21770
15,12533	20779
15,13600	19847
15,14667	19018
15,15733	18306
15,16800	17726
15,17867	17289
15,18933	17000
15,20000	16863
15,21067	16894
15,22133	17093
15,23200	17488
15,24267	18109
15,25333	19007
15,26400	20187
15,27467	21696
15,28533	23505
15,29600	25594
15,30667	27871
15,31733	30257
15,32800	32567
15,33867	34680
15,34933	36388
15,36000	37590
15,37067	38159
15,38133	38050
15,39200	37297
15,40267	35966
15,41333	34175
15,42400	32104
15,43467	29873
15,44533	27680
15,45600	25605
15,46667	23766
15,47733	22205
15,48800	20944
15,49867	19978
15,50933	19296
15,52000	18865
15,53067	18654
15,54133	18620
15,55200	18754
15,56267	19025
15,57333	19402
15,58400	19878
15,59467	20439
15,60533	21051
15,61600	21690
15,62667	22304
15,63733	22867
15,64800	23354
15,65867	23710
15,66933	23902
15,68000	23928
15,69067	23794
15,70133	23482
15,71200	23035
15,72267	22490
15,73333	21868
15,74400	21222
15,75467	20580
15,76533	19959
15,77600	19391
15,78667	18901
15,79733	18491
15,80800	18150
15,81867	17891
15,82933	17721
15,84000	17601
15,85067	17551
15,86133	17553
15,87200	17589
15,88267	17655
15,89333	17726
15,90400	17807
15,91467	17868
15,92533	17912
15,93600	17931
15,94667	17917
15,95733	17874
15,96800	17812
15,97867	17739
15,98933	17668
16,00000	17593
16,01067	17525
16,02133	17475
16,03200	17449
16,04267	17435
16,05333	17464
16,06400	17488
16,07467	17540
16,08533	17600
16,09600	17661
16,10667	17725
16,11733	17787
16,12800	17857
16,13867	17927
16,14933	18014
16,16000	18108
16,17067	18212
16,18133	18325
16,19200	18463
16,20267	18610
16,21333	18757
16,22400	18907
16,23467	19053
16,24533	19189
16,25600	19317
16,26667	19423
16,27733	19514
16,28800	19585
16,29867	19633
16,30933	19640
16,32000	19641
16,33067	19618
16,34133	19571
16,35200	19508
16,36267	19440
16,37333	19372
16,38400	19292
16,39467	19217
16,40533	19152
16,41600	19101
16,42667	19052
16,43733	19033
16,44800	19038
16,45867	19046
16,46933	19072
16,48000	19089
16,49067	19114
16,50133	19141
16,51200	19158
16,52267	19148
16,53333	19134
16,54400	19080
16,55467	19013
16,56533	18923
16,57600	18809
16,58667	18692
16,59733	18564
16,60800	18431
16,61867	18292
16,62933	18183
16,64000	18100
16,65067	18030
16,66133	18004
16,67200	18012
16,68267	18059
16,69333	18126
16,70400	18234
16,71467	18376
16,72533	18524
16,73600	18672
16,74667	18848
16,75733	19024
16,76800	19214
16,77867	19389
16,78933	19556
16,80000	19732
16,81067	19905
16,82133	20074
16,83200	20272
16,84267	20467
16,85333	20672
16,86400	20872
16,87467	21058
16,88533	21212
16,89600	21333
16,90667	21408
16,91733	21427
16,92800	21383
16,93867	21289
16,94933	21152
16,96000	20984
16,97067	20809
16,98133	20638
16,99200	20471
17,00267	20334
17,01333	20210
17,02400	20117
17,03467	20037
17,04533	19958
17,05600	19861
17,06667	19767
17,07733	19650
17,08800	19503
17,09867	19352
17,10933	19172
17,12000	18997
17,13067	18813
17,14133	18628
17,15200	18453
17,16267	18292
17,17333	18153
17,18400	18035
17,19467	17940
17,20533	17871
17,21600	17837
17,22667	17824
17,23733	17830
17,24800	17854
17,25867	17908
17,26933	17969
17,28000	18046
17,29067	18135
17,30133	18232
17,31200	18319
17,32267	18396
17,33333	18462
17,34400	18510
17,35467	18557
17,36533	18576
17,37600	18584
17,38667	18580
17,39733	18566
17,40800	18555
17,41867	18536
17,42933	18517
17,44000	18505
17,45067	18505
17,46133	18512
17,47200	18520
17,48267	18545
17,49333	18580
17,50400	18629
17,51467	18683
17,52533	18735
17,53600	18788
17,54667	18845
17,55733	18907
17,56800	18965
17,57867	19026
17,58933	19091
17,60000	19162
17,61067	19234
17,62133	19307
17,63200	19396
17,64267	19489
17,65333	19606
17,66400	19726
17,67467	19839
17,68533	19961
17,69600	20085
17,70667	20195
17,71733	20284
17,72800	20359
17,73867	20417
17,74933	20442
17,76000	20447
17,77067	20439
17,78133	20400
17,79200	20355
17,80267	20296
17,81333	20251
17,82400	20208
17,83467	20166
17,84533	20150
17,85600	20138
17,86667	20144
17,87733	20163
17,88800	20185
17,89867	20206
17,90933	20230
17,92000	20241
17,93067	20246
17,94133	20239
17,95200	20210
17,96267	20172
17,97333	20127
17,98400	20093
17,99467	20059
18,00533	20046
18,01600	20046
18,02667	20065
18,03733	20109
18,04800	20176
18,05867	20259
18,06933	20359
18,08000	20462
18,09067	20573
18,10133	20679
18,11200	20781
18,12267	20874
18,13333	20950
18,14400	21016
18,15467	21054
18,16533	21085
18,17600	21099
18,18667	21116
18,19733	21116
18,20800	21116
18,21867	21115
18,22933	21111
18,24000	21108
18,25067	21110
18,26133	21102
18,27200	21087
18,28267	21049
18,29333	21004
18,30400	20954
18,31467	20897
18,32533	20838
18,33600	20766
18,34667	20694
18,35733	20640
18,36800	20605
18,37867	20586
18,38933	20593
18,40000	20615
18,41067	20656
18,42133	20712
18,43200	20779
18,44267	20859
18,45333	20951
18,46400	21042
18,47467	21124
18,48533	21195
18,49600	21254
18,50667	21289
18,51733	21293
18,52800	21277
18,53867	21240
18,54933	21197
18,56000	21140
18,57067	21081
18,58133	21027
18,59200	20993
18,60267	20975
18,61333	20974
18,62400	20989
18,63467	21029
18,64533	21095
18,65600	21176
18,66667	21271
18,67733	21384
18,68800	21523
18,69867	21648
18,70933	21784
18,72000	21929
18,73067	22050
18,74133	22173
18,75200	22269
18,76267	22334
18,77333	22377
18,78400	22377
18,79467	22349
18,80533	22267
18,81600	22166
18,82667	22042
18,83733	21911
18,84800	21778
18,85867	21652
18,86933	21543
18,88000	21470
18,89067	21425
18,90133	21418
18,91200	21446
18,92267	21516
18,93333	21619
18,94400	21753
18,95467	21896
18,96533	22069
18,97600	22247
18,98667	22431
18,99733	22608
19,00800	22782
19,01867	22952
19,02933	23120
19,04000	23276
19,05067	23401
19,06133	23532
19,07200	23628
19,08267	23720
19,09333	23815
19,10400	23914
19,11467	24017
19,12533	24118
19,13600	24234
19,14667	24354
19,15733	24480
19,16800	24602
19,17867	24720
19,18933	24823
19,20000	24907
19,21067	24964
19,22133	24992
19,23200	24970
19,24267	24916
19,25333	24847
19,26400	24741
19,27467	24614
19,28533	24476
19,29600	24322
19,30667	24163
19,31733	23997
19,32800	23813
19,33867	23624
19,34933	23440
19,36000	23249
19,37067	23045
19,38133	22860
19,39200	22687
19,40267	22524
19,41333	22370
19,42400	22232
19,43467	22123
19,44533	22050
19,45600	22013
19,46667	22034
19,47733	22145
19,48800	22377
19,49867	22803
19,50933	23486
19,52000	24573
19,53067	26151
19,54133	28380
19,55200	31390
19,56267	35338
19,57333	40244
19,58400	46135
19,59467	52870
19,60533	60235
19,61600	67847
19,62667	75284
19,63733	82020
19,64800	87576
19,65867	91529
19,66933	93587
19,68000	93617
19,69067	91699
19,70133	88019
19,71200	82957
19,72267	76909
19,73333	70341
19,74400	63634
19,75467	57169
19,76533	51166
19,77600	45827
19,78667	41188
19,79733	37290
19,80800	34067
19,81867	31444
19,82933	29350
19,84000	27677
19,85067	26361
19,86133	25329
19,87200	24531
19,88267	23916
19,89333	23449
19,90400	23098
19,91467	22832
19,92533	22646
19,93600	22510
19,94667	22406
19,95733	22348
19,96800	22307
19,97867	22277
19,98933	22257
20,00000	22224
20,01067	22217
20,02133	22211
20,03200	22202
20,04267	22185
20,05333	22169
20,06400	22161
20,07467	22141
20,08533	22132
20,09600	22121
20,10667	22122
20,11733	22121
20,12800	22128
20,13867	22147
20,14933	22184
20,16000	22263
20,17067	22380
20,18133	22580
20,19200	22909
20,20267	23421
20,21333	24215
20,22400	25422
20,23467	27182
20,24533	29729
20,25600	33279
20,26667	38083
20,27733	44337
20,28800	52214
20,29867	61735
20,30933	72817
20,32000	85070
20,33067	98075
20,34133	111054
20,35200	123275
20,36267	133817
20,37333	141946
20,38400	147071
20,39467	148838
20,40533	147166
20,41600	142324
20,42667	134731
20,43733	125096
20,44800	114076
20,45867	102487
20,46933	90915
20,48000	79935
20,49067	69891
20,50133	61030
20,51200	53413
20,52267	47048
20,53333	41805
20,54400	37581
20,55467	34223
20,56533	31582
20,57600	29532
20,58667	27952
20,59733	26748
20,60800	25846
20,61867	25176
20,62933	24694
20,64000	24374
20,65067	24156
20,66133	24039
20,67200	24005
20,68267	24023
20,69333	24065
20,70400	24127
20,71467	24208
20,72533	24270
20,73600	24323
20,74667	24355
20,75733	24361
20,76800	24340
20,77867	24284
20,78933	24209
20,80000	24115
20,81067	24014
20,82133	23899
20,83200	23805
20,84267	23717
20,85333	23652
20,86400	23614
20,87467	23607
20,88533	23644
20,89600	23710
20,90667	23817
20,91733	23964
20,92800	24128
20,93867	24323
20,94933	24538
20,96000	24780
20,97067	25016
20,98133	25270
20,99200	25509
21,00267	25744
21,01333	25959
21,02400	26150
21,03467	26331
21,04533	26472
21,05600	26589
21,06667	26667
21,07733	26707
21,08800	26714
21,09867	26677
21,10933	26599
21,12000	26452
21,13067	26261
21,14133	26022
21,15200	25737
21,16267	25422
21,17333	25090
21,18400	24743
21,19467	24408
21,20533	24098
21,21600	23827
21,22667	23610
21,23733	23450
21,24800	23343
21,25867	23308
21,26933	23313
21,28000	23360
21,29067	23431
21,30133	23531
21,31200	23642
21,32267	23762
21,33333	23891
21,34400	24025
21,35467	24168
21,36533	24332
21,37600	24526
21,38667	24760
21,39733	25080
21,40800	25506
21,41867	26069
21,42933	26842
21,44000	27891
21,45067	29284
21,46133	31095
21,47200	33413
21,48267	36310
21,49333	39834
21,50400	43987
21,51467	48729
21,52533	53930
21,53600	59486
21,54667	65125
21,55733	70601
21,56800	75608
21,57867	79885
21,58933	83163
21,60000	85253
21,61067	86023
21,62133	85456
21,63200	83594
21,64267	80588
21,65333	76621
21,66400	71978
21,67467	66878
21,68533	61614
21,69600	56388
21,70667	51410
21,71733	46793
21,72800	42663
21,73867	39045
21,74933	35953
21,76000	33360
21,77067	31242
21,78133	29534
21,79200	28194
21,80267	27148
21,81333	26342
21,82400	25738
21,83467	25293
21,84533	24988
21,85600	24777
21,86667	24630
21,87733	24558
21,88800	24526
21,89867	24525
21,90933	24543
21,92000	24573
21,93067	24618
21,94133	24674
21,95200	24730
21,96267	24785
21,97333	24839
21,98400	24879
21,99467	24918
22,00533	24953
22,01600	24997
22,02667	25032
22,03733	25075
22,04800	25110
22,05867	25148
22,06933	25188
22,08000	25213
22,09067	25210
22,10133	25186
22,11200	25120
22,12267	25021
22,13333	24901
22,14400	24745
22,15467	24573
22,16533	24390
22,17600	24204
22,18667	24051
22,19733	23914
22,20800	23808
22,21867	23733
22,22933	23703
22,24000	23704
22,25067	23725
22,26133	23768
22,27200	23824
22,28267	23882
22,29333	23924
22,30400	23944
22,31467	23947
22,32533	23918
22,33600	23856
22,34667	23787
22,35733	23702
22,36800	23606
22,37867	23538
22,38933	23485
22,40000	23448
22,41067	23435
22,42133	23452
22,43200	23488
22,44267	23528
22,45333	23565
22,46400	23598
22,47467	23609
22,48533	23595
22,49600	23565
22,50667	23504
22,51733	23418
22,52800	23334
22,53867	23270
22,54933	23242
22,56000	23290
22,57067	23475
22,58133	23882
22,59200	24647
22,60267	25953
22,61333	28038
22,62400	31210
22,63467	35838
22,64533	42352
22,65600	51133
22,66667	62571
22,67733	76843
22,68800	93968
22,69867	113637
22,70933	135134
22,72000	157574
22,73067	179624
22,74133	199988
22,75200	217156
22,76267	230014
22,77333	237646
22,78400	239604
22,79467	235997
22,80533	227273
22,81600	214310
22,82667	198109
22,83733	179961
22,84800	160938
22,85867	142084
22,86933	124196
22,88000	107801
22,89067	93300
22,90133	80755
22,91200	70166
22,92267	61351
22,93333	54144
22,94400	48304
22,95467	43592
22,96533	39788
22,97600	36713
22,98667	34214
22,99733	32187
23,00800	30508
23,01867	29130
23,02933	27968
23,04000	27003
23,05067	26209
23,06133	25527
23,07200	24982
23,08267	24538
23,09333	24183
23,10400	23918
23,11467	23730
23,12533	23607
23,13600	23536
23,14667	23529
23,15733	23566
23,16800	23650
23,17867	23775
23,18933	23926
23,20000	24103
23,21067	24275
23,22133	24449
23,23200	24603
23,24267	24728
23,25333	24800
23,26400	24826
23,27467	24810
23,28533	24735
23,29600	24616
23,30667	24463
23,31733	24274
23,32800	24061
23,33867	23843
23,34933	23630
23,36000	23426
23,37067	23233
23,38133	23054
23,39200	22897
23,40267	22772
23,41333	22667
23,42400	22595
23,43467	22551
23,44533	22530
23,45600	22530
23,46667	22550
23,47733	22585
23,48800	22637
23,49867	22697
23,50933	22779
23,52000	22875
23,53067	22983
23,54133	23128
23,55200	23298
23,56267	23496
23,57333	23708
23,58400	23952
23,59467	24206
23,60533	24454
23,61600	24686
23,62667	24875
23,63733	24987
23,64800	25035
23,65867	24987
23,66933	24857
23,68000	24659
23,69067	24399
23,70133	24098
23,71200	23780
23,72267	23462
23,73333	23152
23,74400	22877
23,75467	22635
23,76533	22430
23,77600	22267
23,78667	22142
23,79733	22052
23,80800	21982
23,81867	21933
23,82933	21902
23,84000	21879
23,85067	21860
23,86133	21840
23,87200	21827
23,88267	21807
23,89333	21769
23,90400	21752
23,91467	21721
23,92533	21708
23,93600	21691
23,94667	21691
23,95733	21711
23,96800	21765
23,97867	21855
23,98933	21996
24,00000	22193
24,01067	22452
24,02133	22792
24,03200	23229
24,04267	23758
24,05333	24381
24,06400	25106
24,07467	25928
24,08533	26827
24,09600	27789
24,10667	28770
24,11733	29736
24,12800	30643
24,13867	31439
24,14933	32084
24,16000	32533
24,17067	32770
24,18133	32777
24,19200	32565
24,20267	32144
24,21333	31540
24,22400	30814
24,23467	29976
24,24533	29094
24,25600	28208
24,26667	27372
24,27733	26570
24,28800	25854
24,29867	25228
24,30933	24694
24,32000	24239
24,33067	23857
24,34133	23543
24,35200	23291
24,36267	23089
24,37333	22916
24,38400	22771
24,39467	22636
24,40533	22517
24,41600	22412
24,42667	22319
24,43733	22237
24,44800	22161
24,45867	22093
24,46933	22038
24,48000	21992
24,49067	21948
24,50133	21916
24,51200	21904
24,52267	21904
24,53333	21921
24,54400	21968
24,55467	22029
24,56533	22120
24,57600	22227
24,58667	22362
24,59733	22515
24,60800	22685
24,61867	22853
24,62933	23021
24,64000	23165
24,65067	23276
24,66133	23351
24,67200	23385
24,68267	23367
24,69333	23303
24,70400	23198
24,71467	23048
24,72533	22868
24,73600	22672
24,74667	22458
24,75733	22248
24,76800	22046
24,77867	21865
24,78933	21708
24,80000	21590
24,81067	21496
24,82133	21450
24,83200	21447
24,84267	21484
24,85333	21574
24,86400	21709
24,87467	21877
24,88533	22091
24,89600	22322
24,90667	22564
24,91733	22831
24,92800	23097
24,93867	23344
24,94933	23563
24,96000	23747
24,97067	23915
24,98133	24071
24,99200	24219
25,00267	24380
25,01333	24564
25,02400	24785
25,03467	25066
25,04533	25412
25,05600	25816
25,06667	26255
25,07733	26726
25,08800	27180
25,09867	27601
25,10933	27940
25,12000	28185
25,13067	28313
25,14133	28308
25,15200	28173
25,16267	27907
25,17333	27534
25,18400	27071
25,19467	26524
25,20533	25943
25,21600	25328
25,22667	24713
25,23733	24109
25,24800	23541
25,25867	23007
25,26933	22523
25,28000	22095
25,29067	21734
25,30133	21405
25,31200	21134
25,32267	20914
25,33333	20735
25,34400	20584
25,35467	20483
25,36533	20402
25,37600	20341
25,38667	20293
25,39733	20288
25,40800	20291
25,41867	20327
25,42933	20380
25,44000	20444
25,45067	20546
25,46133	20675
25,47200	20836
25,48267	21024
25,49333	21242
25,50400	21485
25,51467	21771
25,52533	22057
25,53600	22358
25,54667	22653
25,55733	22943
25,56800	23200
25,57867	23423
25,58933	23593
25,60000	23703
25,61067	23756
25,62133	23754
25,63200	23700
25,64267	23629
25,65333	23540
25,66400	23444
25,67467	23375
25,68533	23331
25,69600	23330
25,70667	23379
25,71733	23489
25,72800	23634
25,73867	23812
25,74933	24000
25,76000	24172
25,77067	24317
25,78133	24421
25,79200	24465
25,80267	24443
25,81333	24360
25,82400	24211
25,83467	24018
25,84533	23803
25,85600	23564
25,86667	23329
25,87733	23106
25,88800	22912
25,89867	22748
25,90933	22613
25,92000	22504
25,93067	22431
25,94133	22387
25,95200	22347
25,96267	22315
25,97333	22285
25,98400	22249
25,99467	22204
26,00533	22159
26,01600	22106
26,02667	22059
26,03733	22001
26,04800	21935
26,05867	21856
26,06933	21780
26,08000	21704
26,09067	21624
26,10133	21543
26,11200	21457
26,12267	21392
26,13333	21331
26,14400	21277
26,15467	21241
26,16533	21210
26,17600	21195
26,18667	21188
26,19733	21183
26,20800	21174
26,21867	21165
26,22933	21161
26,24000	21161
26,25067	21147
26,26133	21134
26,27200	21109
26,28267	21083
26,29333	21053
26,30400	21027
26,31467	20989
26,32533	20954
26,33600	20913
26,34667	20879
26,35733	20836
26,36800	20792
26,37867	20752
26,38933	20712
26,40000	20664
26,41067	20617
26,42133	20561
26,43200	20526
26,44267	20490
26,45333	20455
26,46400	20433
26,47467	20415
26,48533	20401
26,49600	20395
26,50667	20397
26,51733	20404
26,52800	20411
26,53867	20424
26,54933	20434
26,56000	20442
26,57067	20450
26,58133	20462
26,59200	20465
26,60267	20469
26,61333	20473
26,62400	20478
26,63467	20478
26,64533	20485
26,65600	20486
26,66667	20489
26,67733	20500
26,68800	20517
26,69867	20530
26,70933	20546
26,72000	20559
26,73067	20576
26,74133	20604
26,75200	20631
26,76267	20649
26,77333	20682
26,78400	20721
26,79467	20773
26,80533	20837
26,81600	20925
26,82667	21029
26,83733	21177
26,84800	21356
26,85867	21581
26,86933	21831
26,88000	22120
26,89067	22433
26,90133	22765
26,91200	23101
26,92267	23415
26,93333	23695
26,94400	23946
26,95467	24137
26,96533	24279
26,97600	24372
26,98667	24410
26,99733	24394
27,00800	24345
27,01867	24260
27,02933	24147
27,04000	24019
27,05067	23872
27,06133	23699
27,07200	23514
27,08267	23323
27,09333	23122
27,10400	22904
27,11467	22670
27,12533	22431
27,13600	22205
27,14667	21965
27,15733	21732
27,16800	21509
27,17867	21285
27,18933	21076
27,20000	20877
27,21067	20701
27,22133	20534
27,23200	20380
27,24267	20242
27,25333	20129
27,26400	20032
27,27467	19970
27,28533	19926
27,29600	19893
27,30667	19889
27,31733	19931
27,32800	20009
27,33867	20118
27,34933	20268
27,36000	20452
27,37067	20669
27,38133	20895
27,39200	21132
27,40267	21356
27,41333	21553
27,42400	21702
27,43467	21805
27,44533	21842
27,45600	21808
27,46667	21724
27,47733	21583
27,48800	21417
27,49867	21218
27,50933	21016
27,52000	20825
27,53067	20661
27,54133	20497
27,55200	20373
27,56267	20274
27,57333	20207
27,58400	20155
27,59467	20125
27,60533	20123
27,61600	20137
27,62667	20174
27,63733	20217
27,64800	20261
27,65867	20304
27,66933	20366
27,68000	20405
27,69067	20438
27,70133	20460
27,71200	20460
27,72267	20438
27,73333	20386
27,74400	20308
27,75467	20219
27,76533	20111
27,77600	19994
27,78667	19866
27,79733	19735
27,80800	19608
27,81867	19486
27,82933	19375
27,84000	19277
27,85067	19192
27,86133	19129
27,87200	19063
27,88267	19021
27,89333	18983
27,90400	18955
27,91467	18937
27,92533	18925
27,93600	18924
27,94667	18923
27,95733	18919
27,96800	18912
27,97867	18907
27,98933	18898
28,00000	18891
28,01067	18871
28,02133	18855
28,03200	18845
28,04267	18821
28,05333	18804
28,06400	18780
28,07467	18761
28,08533	18731
28,09600	18713
28,10667	18690
28,11733	18667
28,12800	18649
28,13867	18639
28,14933	18627
28,16000	18613
28,17067	18604
28,18133	18606
28,19200	18596
28,20267	18606
28,21333	18619
28,22400	18625
28,23467	18644
28,24533	18663
28,25600	18679
28,26667	18704
28,27733	18732
28,28800	18752
28,29867	18776
28,30933	18792
28,32000	18808
28,33067	18814
28,34133	18808
28,35200	18798
28,36267	18781
28,37333	18755
28,38400	18720
28,39467	18686
28,40533	18649
28,41600	18614
28,42667	18590
28,43733	18570
28,44800	18541
28,45867	18519
28,46933	18494
28,48000	18478
28,49067	18470
28,50133	18458
28,51200	18444
28,52267	18436
28,53333	18426
28,54400	18425
28,55467	18430
28,56533	18447
28,57600	18472
28,58667	18492
28,59733	18517
28,60800	18546
28,61867	18583
28,62933	18599
28,64000	18620
28,65067	18636
28,66133	18645
28,67200	18646
28,68267	18642
28,69333	18625
28,70400	18613
28,71467	18612
28,72533	18605
28,73600	18595
28,74667	18590
28,75733	18602
28,76800	18605
28,77867	18606
28,78933	18599
28,80000	18597
28,81067	18590
28,82133	18566
28,83200	18541
28,84267	18515
28,85333	18481
28,86400	18443
28,87467	18415
28,88533	18388
28,89600	18354
28,90667	18326
28,91733	18304
28,92800	18278
28,93867	18260
28,94933	18239
28,96000	18209
28,97067	18186
28,98133	18159
28,99200	18136
29,00267	18112
29,01333	18085
29,02400	18052
29,03467	18033
29,04533	18010
29,05600	17988
29,06667	17966
29,07733	17945
29,08800	17910
29,09867	17883
29,10933	17854
29,12000	17824
29,13067	17794
29,14133	17758
29,15200	17730
29,16267	17692
29,17333	17656
29,18400	17621
29,19467	17593
29,20533	17561
29,21600	17532
29,22667	17506
29,23733	17481
29,24800	17456
29,25867	17432
29,26933	17425
29,28000	17410
29,29067	17398
29,30133	17402
29,31200	17395
29,32267	17397
29,33333	17386
29,34400	17403
29,35467	17415
29,36533	17424
29,37600	17439
29,38667	17462
29,39733	17492
29,40800	17521
29,41867	17553
29,42933	17589
29,44000	17634
29,45067	17661
29,46133	17692
29,47200	17717
29,48267	17739
29,49333	17764
29,50400	17777
29,51467	17788
29,52533	17796
29,53600	17795
29,54667	17796
29,55733	17797
29,56800	17802
29,57867	17819
29,58933	17825
29,60000	17843
29,61067	17855
29,62133	17878
29,63200	17893
29,64267	17905
29,65333	17903
29,66400	17895
29,67467	17885
29,68533	17868
29,69600	17858
29,70667	17836
29,71733	17818
29,72800	17800
29,73867	17782
29,74933	17774
29,76000	17761
29,77067	17749
29,78133	17747
29,79200	17736
29,80267	17725
29,81333	17710
29,82400	17688
29,83467	17672
29,84533	17648
29,85600	17623
29,86667	17593
29,87733	17556
29,88800	17533
29,89867	17508
29,90933	17488
29,92000	17470
29,93067	17465
29,94133	17457
29,95200	17456
29,96267	17450
29,97333	17450
29,98400	17440
29,99467	17433
30,00533	17426
30,01600	17413
30,02667	17404
30,03733	17399
30,04800	17392
30,05867	17387
30,06933	17392
30,08000	17399
30,09067	17411
30,10133	17422
30,11200	17437
30,12267	17435
30,13333	17447
30,14400	17448
30,15467	17434
30,16533	17415
30,17600	17392
30,18667	17359
30,19733	17335
30,20800	17297
30,21867	17253
30,22933	17215
30,24000	17182
30,25067	17147
30,26133	17114
30,27200	17078
30,28267	17039
30,29333	17016
30,30400	17001
30,31467	16984
30,32533	16971
30,33600	16953
30,34667	16936
30,35733	16922
30,36800	16916
30,37867	16906
30,38933	16901
30,40000	16895
30,41067	16888
30,42133	16873
30,43200	16865
30,44267	16844
30,45333	16829
30,46400	16824
30,47467	16809
30,48533	16801
30,49600	16794
30,50667	16794
30,51733	16783
30,52800	16786
30,53867	16779
30,54933	16789
30,56000	16803
30,57067	16814
30,58133	16824
30,59200	16831
30,60267	16841
30,61333	16853
30,62400	16864
30,63467	16872
30,64533	16873
30,65600	16876
30,66667	16873
30,67733	16869
30,68800	16859
30,69867	16851
30,70933	16850
30,72000	16840
30,73067	16830
30,74133	16824
30,75200	16819
30,76267	16815
30,77333	16813
30,78400	16825
30,79467	16841
30,80533	16867
30,81600	16897
30,82667	16929
30,83733	16964
30,84800	17006
30,85867	17052
30,86933	17093
30,88000	17123
30,89067	17141
30,90133	17160
30,91200	17164
30,92267	17165
30,93333	17147
30,94400	17127
30,95467	17093
30,96533	17052
30,97600	17000
30,98667	16952
30,99733	16902
31,00800	16852
31,01867	16802
31,02933	16747
31,04000	16703
31,05067	16675
31,06133	16641
31,07200	16611
31,08267	16588
31,09333	16565
31,10400	16555
31,11467	16553
31,12533	16553
31,13600	16554
31,14667	16554
31,15733	16568
31,16800	16578
31,17867	16588
31,18933	16587
31,20000	16592
31,21067	16591
31,22133	16590
31,23200	16590
31,24267	16580
31,25333	16576
31,26400	16565
31,27467	16551
31,28533	16532
31,29600	16535
31,30667	16528
31,31733	16523
31,32800	16522
31,33867	16515
31,34933	16511
31,36000	16497
31,37067	16488
31,38133	16491
31,39200	16477
31,40267	16466
31,41333	16454
31,42400	16447
31,43467	16435
31,44533	16422
31,45600	16404
31,46667	16389
31,47733	16382
31,48800	16370
31,49867	16352
31,50933	16347
31,52000	16339
31,53067	16340
31,54133	16335
31,55200	16336
31,56267	16343
31,57333	16342
31,58400	16340
31,59467	16344
31,60533	16352
31,61600	16354
31,62667	16360
31,63733	16367
31,64800	16372
31,65867	16382
31,66933	16396
31,68000	16401
31,69067	16403
31,70133	16413
31,71200	16424
31,72267	16433
31,73333	16435
31,74400	16433
31,75467	16424
31,76533	16413
31,77600	16396
31,78667	16376
31,79733	16360
31,80800	16343
31,81867	16319
31,82933	16306
31,84000	16283
31,85067	16263
31,86133	16244
31,87200	16220
31,88267	16204
31,89333	16186
31,90400	16174
31,91467	16164
31,92533	16155
31,93600	16146
31,94667	16135
31,95733	16138
31,96800	16125
31,97867	16112
31,98933	16110
32,00000	16119
32,01067	16120
32,02133	16118
32,03200	16118
32,04267	16109
32,05333	16112
32,06400	16108
32,07467	16110
32,08533	16102
32,09600	16100
32,10667	16100
32,11733	16099
32,12800	16096
32,13867	16101
32,14933	16099
32,16000	16087
32,17067	16083
32,18133	16081
32,19200	16086
32,20267	16088
32,21333	16085
32,22400	16076
32,23467	16081
32,24533	16083
32,25600	16089
32,26667	16082
32,27733	16089
32,28800	16095
32,29867	16095
32,30933	16100
32,32000	16108
32,33067	16120
32,34133	16123
32,35200	16133
32,36267	16141
32,37333	16149
32,38400	16162
32,39467	16170
32,40533	16182
32,41600	16193
32,42667	16214
32,43733	16239
32,44800	16265
32,45867	16299
32,46933	16344
32,48000	16383
32,49067	16433
32,50133	16508
32,51200	16588
32,52267	16682
32,53333	16797
32,54400	16924
32,55467	17070
32,56533	17221
32,57600	17390
32,58667	17554
32,59733	17716
32,60800	17861
32,61867	17985
32,62933	18094
32,64000	18157
32,65067	18191
32,66133	18199
32,67200	18181
32,68267	18138
32,69333	18070
32,70400	18002
32,71467	17927
32,72533	17852
32,73600	17798
32,74667	17760
32,75733	17725
32,76800	17705
32,77867	17705
32,78933	17726
32,80000	17759
32,81067	17813
32,82133	17864
32,83200	17936
32,84267	18019
32,85333	18120
32,86400	18216
32,87467	18335
32,88533	18460
32,89600	18602
32,90667	18739
32,91733	18890
32,92800	19044
32,93867	19211
32,94933	19371
32,96000	19536
32,97067	19706
32,98133	19877
32,99200	20031
33,00267	20184
33,01333	20342
33,02400	20496
33,03467	20646
33,04533	20810
33,05600	20954
33,06667	21121
33,07733	21285
33,08800	21447
33,09867	21610
33,10933	21784
33,12000	21968
33,13067	22145
33,14133	22321
33,15200	22508
33,16267	22687
33,17333	22882
33,18400	23069
33,19467	23270
33,20533	23469
33,21600	23667
33,22667	23869
33,23733	24066
33,24800	24259
33,25867	24456
33,26933	24647
33,28000	24834
33,29067	25020
33,30133	25210
33,31200	25389
33,32267	25570
33,33333	25755
33,34400	25932
33,35467	26102
33,36533	26279
33,37600	26451
33,38667	26626
33,39733	26789
33,40800	26974
33,41867	27157
33,42933	27331
33,44000	27499
33,45067	27670
33,46133	27839
33,47200	27995
33,48267	28159
33,49333	28305
33,50400	28456
33,51467	28605
33,52533	28755
33,53600	28897
33,54667	29048
33,55733	29190
33,56800	29325
33,57867	29456
33,58933	29594
33,60000	29716
33,61067	29834
33,62133	29949
33,63200	30057
33,64267	30176
33,65333	30295
33,66400	30402
33,67467	30504
33,68533	30605
33,69600	30695
33,70667	30769
33,71733	30841
33,72800	30915
33,73867	30976
33,74933	31053
33,76000	31125
33,77067	31198
33,78133	31268
33,79200	31322
33,80267	31373
33,81333	31420
33,82400	31479
33,83467	31526
33,84533	31577
33,85600	31627
33,86667	31681
33,87733	31734
33,88800	31771
33,89867	31822
33,90933	31882
33,92000	31981
33,93067	32112
33,94133	32273
33,95200	32428
33,96267	32549
33,97333	32576
33,98400	32557
33,99467	32490
34,00533	32444
34,01600	32409
34,02667	32408
34,03733	32457
34,04800	32541
34,05867	32666
34,06933	32771
34,08000	32839
34,09067	32858
34,10133	32814
34,11200	32731
34,12267	32631
34,13333	32535
34,14400	32477
34,15467	32442
34,16533	32438
34,17600	32456
34,18667	32502
34,19733	32575
34,20800	32686
34,21867	32812
34,22933	32948
34,24000	33089
34,25067	33224
34,26133	33342
34,27200	33429
34,28267	33504
34,29333	33547
34,30400	33559
34,31467	33543
34,32533	33516
34,33600	33503
34,34667	33515
34,35733	33548
34,36800	33610
34,37867	33693
34,38933	33783
34,40000	33876
34,41067	33998
34,42133	34183
34,43200	34387
34,44267	34604
34,45333	34794
34,46400	34951
34,47467	35076
34,48533	35148
34,49600	35184
34,50667	35158
34,51733	35096
34,52800	34981
34,53867	34839
34,54933	34692
34,56000	34550
34,57067	34432
34,58133	34339
34,59200	34274
34,60267	34241
34,61333	34254
34,62400	34280
34,63467	34313
34,64533	34351
34,65600	34385
34,66667	34383
34,67733	34380
34,68800	34372
34,69867	34360
34,70933	34349
34,72000	34357
34,73067	34371
34,74133	34411
34,75200	34458
34,76267	34509
34,77333	34571
34,78400	34658
34,79467	34755
34,80533	34858
34,81600	34945
34,82667	35022
34,83733	35105
34,84800	35222
34,85867	35345
34,86933	35452
34,88000	35526
34,89067	35576
34,90133	35609
34,91200	35648
34,92267	35694
34,93333	35743
34,94400	35809
34,95467	35895
34,96533	36046
34,97600	36357
34,98667	37260
34,99733	39799
35,00800	45661
35,01867	56565
35,02933	73178
35,04000	95243
35,05067	120070
35,06133	141487
35,07200	151611
35,08267	147405
35,09333	132951
35,10400	114959
35,11467	98461
35,12533	85298
35,13600	75543
35,14667	68516
35,15733	63606
35,16800	60294
35,17867	58097
35,18933	56491
35,20000	55089
35,21067	53724
35,22133	52430
35,23200	51281
35,24267	50320
35,25333	49542
35,26400	48889
35,27467	48345
35,28533	47879
35,29600	47455
35,30667	47068
35,31733	46737
35,32800	46442
35,33867	46190
35,34933	46004
35,36000	45879
35,37067	45689
35,38133	45321
35,39200	44789
35,40267	44252
35,41333	43876
35,42400	43785
35,43467	44171
35,44533	45370
35,45600	47516
35,46667	50160
35,47733	52402
35,48800	53512
35,49867	53438
35,50933	52599
35,52000	51359
35,53067	49907
35,54133	48419
35,55200	47223
35,56267	46693
35,57333	46956
35,58400	47699
35,59467	48273
35,60533	48172
35,61600	47454
35,62667	46458
35,63733	45505
35,64800	44694
35,65867	44056
35,66933	43560
35,68000	43187
35,69067	42912
35,70133	42717
35,71200	42585
35,72267	42508
35,73333	42481
35,74400	42476
35,75467	42486
35,76533	42516
35,77600	42603
35,78667	42751
35,79733	43012
35,80800	43444
35,81867	44028
35,82933	44654
35,84000	45127
35,85067	45327
35,86133	45296
35,87200	45153
35,88267	44985
35,89333	44758
35,90400	44451
35,91467	44084
35,92533	43691
35,93600	43326
35,94667	43020
35,95733	42776
35,96800	42610
35,97867	42509
35,98933	42466
36,00000	42490
36,01067	42567
36,02133	42682
36,03200	42772
36,04267	42794
36,05333	42760
36,06400	42685
36,07467	42593
36,08533	42510
36,09600	42467
36,10667	42460
36,11733	42499
36,12800	42554
36,13867	42637
36,14933	42750
36,16000	42891
36,17067	43062
36,18133	43235
36,19200	43414
36,20267	43571
36,21333	43704
36,22400	43832
36,23467	43962
36,24533	44058
36,25600	44097
36,26667	44039
36,27733	43950
36,28800	43928
36,29867	44065
36,30933	44394
36,32000	44840
36,33067	45207
36,34133	45326
36,35200	45161
36,36267	44807
36,37333	44420
36,38400	44087
36,39467	43817
36,40533	43616
36,41600	43448
36,42667	43293
36,43733	43175
36,44800	43084
36,45867	43023
36,46933	42992
36,48000	42974
36,49067	42964
36,50133	42988
36,51200	43007
36,52267	43038
36,53333	43053
36,54400	43069
36,55467	43082
36,56533	43095
36,57600	43106
36,58667	43111
36,59733	43108
36,60800	43120
36,61867	43119
36,62933	43126
36,64000	43134
36,65067	43145
36,66133	43177
36,67200	43229
36,68267	43284
36,69333	43341
36,70400	43393
36,71467	43424
36,72533	43438
36,73600	43459
36,74667	43512
36,75733	43588
36,76800	43680
36,77867	43757
36,78933	43800
36,80000	43783
36,81067	43700
36,82133	43594
36,83200	43486
36,84267	43394
36,85333	43325
36,86400	43272
36,87467	43241
36,88533	43227
36,89600	43220
36,90667	43212
36,91733	43207
36,92800	43207
36,93867	43212
36,94933	43207
36,96000	43236
36,97067	43281
36,98133	43365
36,99200	43509
37,00267	43704
37,01333	43946
37,02400	44188
37,03467	44391
37,04533	44534
37,05600	44526
37,06667	44424
37,07733	44235
37,08800	44025
37,09867	43816
37,10933	43631
37,12000	43485
37,13067	43384
37,14133	43324
37,15200	43295
37,16267	43285
37,17333	43302
37,18400	43352
37,19467	43429
37,20533	43528
37,21600	43626
37,22667	43704
37,23733	43732
37,24800	43701
37,25867	43640
37,26933	43560
37,28000	43475
37,29067	43398
37,30133	43350
37,31200	43314
37,32267	43292
37,33333	43279
37,34400	43269
37,35467	43267
37,36533	43258
37,37600	43259
37,38667	43255
37,39733	43246
37,40800	43251
37,41867	43257
37,42933	43264
37,44000	43273
37,45067	43270
37,46133	43273
37,47200	43288
37,48267	43294
37,49333	43305
37,50400	43315
37,51467	43327
37,52533	43327
37,53600	43334
37,54667	43341
37,55733	43332
37,56800	43333
37,57867	43329
37,58933	43327
37,60000	43327
37,61067	43327
37,62133	43328
37,63200	43331
37,64267	43333
37,65333	43331
37,66400	43330
37,67467	43335
37,68533	43337
37,69600	43343
37,70667	43349
37,71733	43362
37,72800	43379
37,73867	43395
37,74933	43412
37,76000	43444
37,77067	43469
37,78133	43495
37,79200	43511
37,80267	43519
37,81333	43521
37,82400	43509
37,83467	43497
37,84533	43472
37,85600	43455
37,86667	43444
37,87733	43430
37,88800	43423
37,89867	43427
37,90933	43416
37,92000	43414
37,93067	43422
37,94133	43419
37,95200	43416
37,96267	43424
37,97333	43422
37,98400	43425
37,99467	43418
38,00533	43414
38,01600	43416
38,02667	43415
38,03733	43418
38,04800	43420
38,05867	43424
38,06933	43427
38,08000	43421
38,09067	43419
38,10133	43425
38,11200	43418
38,12267	43427
38,13333	43433
38,14400	43439
38,15467	43444
38,16533	43448
38,17600	43453
38,18667	43456
38,19733	43457
38,20800	43469
38,21867	43487
38,22933	43498
38,24000	43502
38,25067	43516
38,26133	43528
38,27200	43531
38,28267	43534
38,29333	43532
38,30400	43538
38,31467	43531
38,32533	43530
38,33600	43519
38,34667	43515
38,35733	43512
38,36800	43521
38,37867	43509
38,38933	43508
38,40000	43516
38,41067	43514
38,42133	43512
38,43200	43515
38,44267	43515
38,45333	43512
38,46400	43512
38,47467	43519
38,48533	43531
38,49600	43533
38,50667	43538
38,51733	43548
38,52800	43544
38,53867	43546
38,54933	43544
38,56000	43548
38,57067	43561
38,58133	43563
38,59200	43565
38,60267	43573
38,61333	43568
38,62400	43571
38,63467	43574
38,64533	43586
38,65600	43603
38,66667	43609
38,67733	43622
38,68800	43639
38,69867	43655
38,70933	43667
38,72000	43674
38,73067	43698
38,74133	43723
38,75200	43779
38,76267	43853
38,77333	43986
38,78400	44213
38,79467	44597
38,80533	45194
38,81600	46128
38,82667	47496
38,83733	49410
38,84800	51978
38,85867	55177
38,86933	58934
38,88000	62964
38,89067	66898
38,90133	70252
38,91200	72583
38,92267	73537
38,93333	72980
38,94400	71020
38,95467	67979
38,96533	64292
38,97600	60441
38,98667	56782
38,99733	53618
39,00800	51038
39,01867	49072
39,02933	47636
39,04000	46621
39,05067	45911
39,06133	45420
39,07200	45076
39,08267	44841
39,09333	44656
39,10400	44495
39,11467	44367
39,12533	44250
39,13600	44138
39,14667	44025
39,15733	43923
39,16800	43812
39,17867	43701
39,18933	43585
39,20000	43469
39,21067	43342
39,22133	43208
39,23200	43067
39,24267	42920
39,25333	42757
39,26400	42603
39,27467	42433
39,28533	42251
39,29600	42066
39,30667	41874
39,31733	41675
39,32800	41464
39,33867	41258
39,34933	41041
39,36000	40824
39,37067	40587
39,38133	40349
39,39200	40131
39,40267	39900
39,41333	39669
39,42400	39435
39,43467	39206
39,44533	38995
39,45600	38792
39,46667	38562
39,47733	38359
39,48800	38194
39,49867	38009
39,50933	37798
39,52000	37592
39,53067	37368
39,54133	37119
39,55200	36842
39,56267	36543
39,57333	36211
39,58400	35867
39,59467	35518
39,60533	35180
39,61600	34849
39,62667	34494
39,63733	34081
39,64800	33583
39,65867	32982
39,66933	32254
39,68000	31420
39,69067	30489
39,70133	29470
39,71200	28354
39,72267	27200
39,73333	26029
39,74400	24862
39,75467	23655
39,76533	22422
39,77600	21188
39,78667	19972
39,79733	18780
39,80800	17637
39,81867	16538
39,82933	15506
39,84000	14536
39,85067	13624
39,86133	12754
39,87200	11941
39,88267	11193
39,89333	10501
39,90400	9865
39,91467	9269
39,92533	8717
39,93600	8222
39,94667	7761
39,95733	7331
39,96800	6941
39,97867	6586
39,98933	6258
40,00000	5941
40,01067	5655
40,02133	5396
40,03200	5151
40,04267	4920
40,05333	4706
40,06400	4506
40,07467	4323
40,08533	4146
40,09600	3988
40,10667	3838
40,11733	3687
40,12800	3548
40,13867	3420
40,14933	3298
40,16000	3180
40,17067	3065
40,18133	2968
40,19200	2866
40,20267	2773
40,21333	2670
40,22400	2579
40,23467	2494
40,24533	2408
40,25600	2322
40,26667	2250
40,27733	2175
40,28800	2111
40,29867	2032
40,30933	1969
40,32000	1903
40,33067	1849
40,34133	1790
40,35200	1732
40,36267	1675
40,37333	1615
40,38400	1571
40,39467	1523
40,40533	1474
40,41600	1422
40,42667	1372
40,43733	1333
40,44800	1293
40,45867	1254
40,46933	1208
40,48000	1169
40,49067	1127
40,50133	1089
40,51200	1052
40,52267	1023
40,53333	992
40,54400	953
40,55467	925
40,56533	901
40,57600	865
40,58667	836
40,59733	794
40,60800	763
40,61867	742
40,62933	726
40,64000	700
40,65067	670
40,66133	652
40,67200	618
40,68267	594
40,69333	563
40,70400	535
40,71467	516
40,72533	493
40,73600	464
40,74667	451
40,75733	431
40,76800	397
40,77867	381
40,78933	353
40,80000	324
40,81067	312
40,82133	285
40,83200	265
40,84267	242
40,85333	221
40,86400	200
40,87467	180
40,88533	158
40,89600	141
40,90667	128
40,91733	112
40,92800	91
40,93867	72
40,94933	59
40,96000	43
40,97067	29
40,98133	19
40,99200	2
41,00267	-12
41,01333	-32
41,02400	-42
41,03467	-50
41,04533	-59
41,05600	-72
41,06667	-79
41,07733	-91
41,08800	-102
41,09867	-113
41,10933	-115
41,12000	-125
41,13067	-131
41,14133	-133
41,15200	-137
41,16267	-144
41,17333	-153
41,18400	-167
41,19467	-172
41,20533	-182
41,21600	-189
41,22667	-198
41,23733	-217
41,24800	-217
41,25867	-222
41,26933	-228
41,28000	-226
41,29067	-227
41,30133	-233
41,31200	-239
41,32267	-243
41,33333	-252
41,34400	-255
41,35467	-251
41,36533	-261
41,37600	-268
41,38667	-267
41,39733	-272
41,40800	-272
41,41867	-271
41,42933	-266
41,44000	-265
41,45067	-269
41,46133	-269
41,47200	-266
41,48267	-273
41,49333	-268
41,50400	-256
41,51467	-259
41,52533	-257
41,53600	-249
41,54667	-247
41,55733	-254
41,56800	-245
41,57867	-234
41,58933	-227
41,60000	-220
41,61067	-216
41,62133	-212
41,63200	-213
41,64267	-206
41,65333	-200
41,66400	-193
41,67467	-179
41,68533	-175
41,69600	-169
41,70667	-161
41,71733	-158
41,72800	-154
41,73867	-131
41,74933	-123
41,76000	-119
41,77067	-110
41,78133	-120
41,79200	-106
41,80267	-95
41,81333	-90
41,82400	-84
41,83467	-72
41,84533	-63
41,85600	-59
41,86667	-49
41,87733	-48
41,88800	-43
41,89867	-37
41,90933	-36
41,92000	-31
41,93067	-16
41,94133	-8
41,95200	-8
41,96267	-5
41,97333	3
41,98400	9
41,99467	21
42,00533	25
42,01600	30
42,02667	31
42,03733	35
42,04800	40
42,05867	47
42,06933	53
42,08000	50
42,09067	57
42,10133	74
42,11200	76
42,12267	79
42,13333	82
42,14400	85
42,15467	82
42,16533	91
42,17600	95
42,18667	96
42,19733	92
42,20800	96
42,21867	97
42,22933	96
42,24000	91
42,25067	93
42,26133	94
42,27200	96
42,28267	106
42,29333	107
42,30400	107
42,31467	118
42,32533	120
42,33600	120
42,34667	116
42,35733	117
42,36800	119
42,37867	124
42,38933	119
42,40000	118
42,41067	119
42,42133	124
42,43200	124
42,44267	130
42,45333	127
42,46400	122
42,47467	116
42,48533	121
42,49600	125
42,50667	126
42,51733	132
42,52800	119
42,53867	124
42,54933	119
42,56000	130
42,57067	120
42,58133	128
42,59200	125
42,60267	125
42,61333	128
42,62400	124
42,63467	132
42,64533	128
42,65600	133
42,66667	133
42,67733	131
42,68800	132
42,69867	126
42,70933	131
42,72000	137
42,73067	133
42,74133	131
42,75200	133
42,76267	131
42,77333	127
42,78400	127
42,79467	126
42,80533	130
42,81600	126
42,82667	135
42,83733	137
42,84800	128
42,85867	132
42,86933	126
42,88000	130
42,89067	130
42,90133	123
42,91200	127
42,92267	125
42,93333	127
42,94400	129
42,95467	127
42,96533	129
42,97600	132
42,98667	124
42,99733	120
43,00800	128
43,01867	128
43,02933	129
43,04000	122
43,05067	126
43,06133	121
43,07200	118
43,08267	119
43,09333	113
43,10400	119
43,11467	124
43,12533	127
43,13600	123
43,14667	123
43,15733	121
43,16800	117
43,17867	122
43,18933	124
43,20000	123
43,21067	119
43,22133	120
43,23200	128
43,24267	119
43,25333	122
43,26400	118
43,27467	117
43,28533	119
43,29600	121
43,30667	121
43,31733	123
43,32800	119
43,33867	128
43,34933	125
43,36000	113
43,37067	118
43,38133	117
43,39200	116
43,40267	122
43,41333	123
43,42400	119
43,43467	122
43,44533	120
43,45600	120
43,46667	116
43,47733	117
43,48800	126
43,49867	119
43,50933	125
43,52000	124
43,53067	129
43,54133	127
43,55200	129
43,56267	124
43,57333	120
43,58400	124
43,59467	127
43,60533	122
43,61600	123
43,62667	130
43,63733	127
43,64800	129
43,65867	126
43,66933	118
43,68000	122
43,69067	119
43,70133	107
43,71200	111
43,72267	110
43,73333	103
43,74400	112
43,75467	114
43,76533	117
43,77600	122
43,78667	123
43,79733	115
43,80800	117
43,81867	114
43,82933	123
43,84000	122
43,85067	122
43,86133	122
43,87200	124
43,88267	119
43,89333	118
43,90400	122
43,91467	123
43,92533	121
43,93600	124
43,94667	117
43,95733	119
43,96800	122
43,97867	119
43,98933	121
44,00000	113
44,01067	105
44,02133	108
44,03200	108
44,04267	104
44,05333	108
44,06400	110
44,07467	112
44,08533	116
44,09600	115
44,10667	107
44,11733	110
44,12800	106
44,13867	113
44,14933	106
44,16000	107
44,17067	110
44,18133	115
44,19200	120
44,20267	118
44,21333	113
44,22400	113
44,23467	109
44,24533	109
44,25600	109
44,26667	109
44,27733	104
44,28800	109
44,29867	107
44,30933	107
44,32000	106
44,33067	112
44,34133	111
44,35200	110
44,36267	106
44,37333	107
44,38400	104
44,39467	109
44,40533	111
44,41600	112
44,42667	108
44,43733	100
44,44800	97
44,45867	99
44,46933	104
44,48000	102
44,49067	111
44,50133	106
44,51200	103
44,52267	99
44,53333	105
44,54400	102
44,55467	96
44,56533	96
44,57600	96
44,58667	95
44,59733	95
44,60800	99
44,61867	101
44,62933	100
44,64000	100
44,65067	106
44,66133	107
44,67200	107
44,68267	103
44,69333	96
44,70400	95
44,71467	89
44,72533	92
44,73600	95
44,74667	84
44,75733	86
44,76800	87
44,77867	83
44,78933	88
44,80000	90
44,81067	91
44,82133	89
44,83200	93
44,84267	90
44,85333	99
44,86400	96
44,87467	95
44,88533	92
44,89600	86
44,90667	81
44,91733	81
44,92800	81
44,93867	80
44,94933	87
44,96000	92
44,97067	85
44,98133	82
44,99200	89
45,00267	86
45,01333	80
45,02400	91
45,03467	86
45,04533	82
45,05600	80
45,06667	83
45,07733	87
45,08800	84
45,09867	83
45,10933	84
45,12000	87
45,13067	86
45,14133	90
45,15200	88
45,16267	89
45,17333	87
45,18400	88
45,19467	86
45,20533	80
45,21600	76
45,22667	83
45,23733	93
45,24800	85
45,25867	86
45,26933	87
45,28000	87
45,29067	85
45,30133	85
45,31200	81
45,32267	81
45,33333	80
45,34400	83
45,35467	76
45,36533	71
45,37600	79
45,38667	81
45,39733	75
45,40800	85
45,41867	86
45,42933	89
45,44000	77
45,45067	78
45,46133	74
45,47200	77
45,48267	78
45,49333	77
45,50400	80
45,51467	79
45,52533	78
45,53600	78
45,54667	71
45,55733	83
45,56800	80
45,57867	75
45,58933	85
45,60000	78
45,61067	80
45,62133	78
45,63200	79
45,64267	74
45,65333	76
45,66400	82
45,67467	90
45,68533	81
45,69600	77
45,70667	81
45,71733	74
45,72800	79
45,73867	88
45,74933	85
45,76000	83
45,77067	78
45,78133	82
45,79200	86
45,80267	79
45,81333	84
45,82400	79
45,83467	84
45,84533	86
45,85600	85
45,86667	87
45,87733	80
45,88800	80
45,89867	72
45,90933	75
45,92000	76
45,93067	77
45,94133	84
45,95200	88
45,96267	84
45,97333	81
45,98400	80
45,99467	80
46,00533	77
46,01600	78
46,02667	78
46,03733	75
46,04800	72
46,05867	75
46,06933	81
46,08000	86
46,09067	84
46,10133	82
46,11200	82
46,12267	83
46,13333	89
46,14400	85
46,15467	75
46,16533	79
46,17600	74
46,18667	80
46,19733	74
46,20800	78
46,21867	82
46,22933	86
46,24000	76
46,25067	78
46,26133	80
46,27200	83
46,28267	80
46,29333	74
46,30400	76
46,31467	71
46,32533	77
46,33600	69
46,34667	71
46,35733	77
46,36800	80
46,37867	83
46,38933	85
46,40000	78
46,41067	79
46,42133	83
46,43200	79
46,44267	82
46,45333	84
46,46400	73
46,47467	76
46,48533	80
46,49600	76
46,50667	73
46,51733	68
46,52800	70
46,53867	73
46,54933	78
46,56000	77
46,57067	67
46,58133	75
46,59200	82
46,60267	82
46,61333	73
46,62400	80
46,63467	74
46,64533	64
46,65600	59
46,66667	72
46,67733	78
46,68800	78
46,69867	72
46,70933	69
46,72000	74
46,73067	73
46,74133	76
46,75200	73
46,76267	68
46,77333	70
46,78400	77
46,79467	79
46,80533	67
46,81600	73
46,82667	68
46,83733	69
46,84800	70
46,85867	66
46,86933	71
46,88000	73
46,89067	70
46,90133	72
46,91200	72
46,92267	66
46,93333	62
46,94400	65
46,95467	68
46,96533	73
46,97600	74
46,98667	68
46,99733	60
47,00800	66
47,01867	64
47,02933	65
47,04000	59
47,05067	54
47,06133	66
47,07200	70
47,08267	67
47,09333	70
47,10400	69
47,11467	70
47,12533	65
47,13600	64
47,14667	63
47,15733	71
47,16800	65
47,17867	64
47,18933	72
47,20000	66
47,21067	69
47,22133	66
47,23200	65
47,24267	61
47,25333	56
47,26400	59
47,27467	62
47,28533	60
47,29600	63
47,30667	66
47,31733	69
47,32800	63
47,33867	60
47,34933	59
47,36000	63
47,37067	65
47,38133	57
47,39200	53
47,40267	62
47,41333	55
47,42400	52
47,43467	64
47,44533	65
47,45600	68
47,46667	66
47,47733	71
47,48800	63
47,49867	59
47,50933	61
47,52000	64
47,53067	65
47,54133	65
47,55200	67
47,56267	64
47,57333	62
47,58400	66
47,59467	70
47,60533	64
47,61600	63
47,62667	63
47,63733	71
47,64800	73
47,65867	67
47,66933	67
47,68000	60
47,69067	60
47,70133	63
47,71200	62
47,72267	60
47,73333	65
47,74400	59
47,75467	63
47,76533	70
47,77600	65
47,78667	61
47,79733	60
47,80800	58
47,81867	62
47,82933	67
47,84000	63
47,85067	59
47,86133	63
47,87200	57
47,88267	59
47,89333	60
47,90400	57
47,91467	50
47,92533	54
47,93600	58
47,94667	53
47,95733	57
47,96800	57
47,97867	54
47,98933	53
48,00000	59
48,01067	59
48,02133	56
48,03200	59
48,04267	54
48,05333	53
48,06400	54
48,07467	57
48,08533	58
48,09600	58
48,10667	55
48,11733	54
48,12800	53
48,13867	57
48,14933	57
48,16000	61
48,17067	61
48,18133	48
48,19200	49
48,20267	54
48,21333	54
48,22400	56
48,23467	51
48,24533	52
48,25600	50
48,26667	53
48,27733	52
48,28800	50
48,29867	57
48,30933	50
48,32000	52
48,33067	54
48,34133	53
48,35200	57
48,36267	60
48,37333	56
48,38400	53
48,39467	48
48,40533	53
48,41600	46
48,42667	44
48,43733	49
48,44800	51
48,45867	47
48,46933	52
48,48000	55
48,49067	51
48,50133	54
48,51200	58
48,52267	54
48,53333	58
48,54400	53
48,55467	53
48,56533	47
48,57600	44
48,58667	47
48,59733	44
48,60800	47
48,61867	49
48,62933	53
48,64000	48
48,65067	47
48,66133	44
48,67200	48
48,68267	45
48,69333	51
48,70400	48
48,71467	43
48,72533	41
48,73600	41
48,74667	46
48,75733	45
48,76800	42
48,77867	46
48,78933	48
48,80000	51
48,81067	46
48,82133	50
48,83200	50
48,84267	41
48,85333	45
48,86400	44
48,87467	43
48,88533	44
48,89600	44
48,90667	45
48,91733	42
48,92800	43
48,93867	46
48,94933	41
48,96000	45
48,97067	40
48,98133	50
48,99200	45
49,00267	45
49,01333	42
49,02400	45
49,03467	46
49,04533	41
49,05600	44
49,06667	47
49,07733	51
49,08800	46
49,09867	35
49,10933	39
49,12000	46
49,13067	40
49,14133	38
49,15200	38
49,16267	41
49,17333	35
49,18400	33
49,19467	42
49,20533	44
49,21600	40
49,22667	30
49,23733	33
49,24800	38
49,25867	40
49,26933	36
49,28000	38
49,29067	43
49,30133	39
49,31200	47
49,32267	49
49,33333	37
49,34400	31
49,35467	34
49,36533	38
49,37600	30
49,38667	29
49,39733	38
49,40800	32
49,41867	25
49,42933	30
49,44000	31
49,45067	34
49,46133	37
49,47200	39
49,48267	33
49,49333	31
49,50400	32
49,51467	32
49,52533	38
49,53600	28
49,54667	34
49,55733	40
49,56800	37
49,57867	30
49,58933	27
49,60000	27
49,61067	31
49,62133	34
49,63200	35
49,64267	36
49,65333	33
49,66400	35
49,67467	35
49,68533	35
49,69600	36
49,70667	29
49,71733	34
49,72800	34
49,73867	35
49,74933	33
49,76000	27
49,77067	32
49,78133	24
49,79200	29
49,80267	30
49,81333	28
49,82400	29
49,83467	31
49,84533	25
49,85600	25
49,86667	24
49,87733	26
49,88800	25
49,89867	27
49,90933	25
49,92000	28
49,93067	24
49,94133	27
49,95200	22
49,96267	21
49,97333	26
49,98400	31
49,99467	20
50,00533	24
50,01600	29


