[Header]
Application Name	LabSolutions
Version	5.73
Data File Name	C:\Users\Public\DADOS\Ricardo borges\RMBorges\26.02.25\MIX STD001.lcd
Output Date	26/02/2025
Output Time	13:36:15

[File Information]
Type	Data File
Generated	26/02/2025 12:45:47
Generated by	System Administrator
Modified	26/02/2025 13:36:15
Modified by	System Administrator

[Sample Information]
Operator Name	System Administrator
Acquired	26/02/2025 12:46:13
Sample Type	0:Unknown
Level	0
Sample Name	MIX STD
Sample ID	MIX STD
ISTD Amount1	1
ISTD Amount2	1
ISTD Amount3	1
ISTD Amount4	1
ISTD Amount5	1
ISTD Amount6	1
ISTD Amount7	1
ISTD Amount8	1
ISTD Amount9	1
ISTD Amount10	1
ISTD Amount11	1
ISTD Amount12	1
ISTD Amount13	1
ISTD Amount14	1
ISTD Amount15	1
ISTD Amount16	1
ISTD Amount17	1
ISTD Amount18	1
ISTD Amount19	1
ISTD Amount20	1
ISTD Amount21	1
ISTD Amount22	1
ISTD Amount23	1
ISTD Amount24	1
ISTD Amount25	1
ISTD Amount26	1
ISTD Amount27	1
ISTD Amount28	1
ISTD Amount29	1
ISTD Amount30	1
ISTD Amount31	1
ISTD Amount32	1
Sample Amount	1
Dilution Factor	1
Vial#	1
Injection Volume	10

[Original Files]
Data File	C:\Users\Public\DADOS\Ricardo borges\RMBorges\26.02.25\MIX STD001.lcd
Method File	C:\Users\Public\MÉTODOS\MÉTODOS HPLC AUTOMÁTICO\RICARDO BORGES\RMBorges\sciffee\experimental 1 - pool.lcm
Batch File	C:\Users\Public\DADOS\Ricardo borges\RMBorges\26.02.25\BATCH_RM_MIX POOL_26.02.2025.lcb
Report Format File	C:\LabSolutions\System\Default.lsr

[File Description]


[Configuration]
Instrument Name	HPLC analítico (automático)
Instrument #	1
Line #	1
# of Detectors	1
Detector ID	PDA
Detector Name	PDA
# of Channels	1

[Peak Table(PDA-Ch1)]
# of Peaks	45
Peak#	R.Time	I.Time	F.Time	Area	Height	A/H	Conc.	Mark	ID#	Name	k'	Plate #	Plate Ht.	Tailing	Resolution	Sep.Factor	Area Ratio	Height Ratio	Conc. %	Norm Conc.
1	1,669	1,419	1,824	121662	15887	7,658	0,000	   			0,000	1497	100,209	0,810	0,000	0,000	0	0	0,000	0,000
2	5,986	5,781	6,240	5023	420	11,957	0,000	   			2,586	5230	28,682	1,202	17,141	0,000	0	0	0,000	0,000
3	8,555	8,277	8,715	157565	14100	11,175	0,000	   			4,125	11926	12,577	0,000	7,973	1,595	0	0	0,000	0,000
4	8,889	8,715	9,312	404710	35003	11,562	0,000	 V 			4,325	12593	11,911	0,000	1,059	1,048	0	0	0,000	0,000
5	9,662	9,440	9,856	3230	276	11,717	0,000	   			4,788	14195	10,567	0,000	2,411	1,107	0	0	0,000	0,000
6	10,102	9,856	10,208	1244	97	12,826	0,000	 V 			5,052	13460	11,144	0,000	1,309	1,055	0	0	0,000	0,000
7	10,462	10,261	10,624	1753	157	11,197	0,000	   			5,267	19521	7,684	0,917	1,112	1,043	0	0	0,000	0,000
8	11,177	10,848	11,893	2449139	218755	11,196	0,000	   			5,696	21680	6,919	1,160	2,371	1,081	0	0	0,000	0,000
9	12,202	11,893	12,832	4716534	431285	10,936	0,000	 V 			6,310	26573	5,645	1,160	3,401	1,108	0	0	0,000	0,000
10	13,337	13,120	14,912	2943480	180503	16,307	0,000	   			6,990	17020	8,813	2,439	3,204	1,108	0	0	0,000	0,000
11	15,679	15,456	15,904	3072	298	10,303	0,000	   			8,392	46345	3,237	1,036	6,688	1,201	0	0	0,000	0,000
12	17,749	17,568	17,877	1326	115	11,518	0,000	   			9,633	63746	2,353	0,000	7,234	1,148	0	0	0,000	0,000
13	18,229	17,877	18,347	6239	307	20,318	0,000	 V 			9,920	3726	40,253	0,000	0,651	1,030	0	0	0,000	0,000
14	18,410	18,347	18,613	2620	292	8,986	0,000	 V 			10,029	2001	74,980	0,000	0,127	1,011	0	0	0,000	0,000
15	19,216	19,029	19,360	1389	135	10,293	0,000	   			10,511	75697	1,982	0,877	0,837	1,048	0	0	0,000	0,000
16	19,780	19,563	20,000	4224	372	11,364	0,000	   			10,850	66981	2,239	1,064	1,931	1,032	0	0	0,000	0,000
17	20,282	20,107	20,437	2564	254	10,102	0,000	   			11,150	83781	1,790	0,964	1,712	1,028	0	0	0,000	0,000
18	21,042	20,736	21,237	7908	595	13,294	0,000	   			11,606	52508	2,857	0,897	2,348	1,041	0	0	0,000	0,000
19	21,643	21,237	21,888	16504	1379	11,966	0,000	 V 			11,965	73579	2,039	1,124	1,749	1,031	0	0	0,000	0,000
20	22,193	21,888	22,528	112767	10376	10,868	0,000	 V 			12,295	89684	1,673	1,055	1,789	1,028	0	0	0,000	0,000
21	23,893	23,659	24,043	1308	81	16,083	0,000	   			13,314	71045	2,111	0,784	5,191	1,083	0	0	0,000	0,000
22	24,308	24,043	24,597	5232	319	16,406	0,000	   			13,562	46819	3,204	1,191	1,027	1,019	0	0	0,000	0,000
23	25,297	24,907	25,525	16837	1504	11,192	0,000	   			14,154	114324	1,312	0,926	2,641	1,044	0	0	0,000	0,000
24	26,176	25,835	26,229	5561	536	10,375	0,000	   			14,681	59374	2,526	0,000	2,412	1,037	0	0	0,000	0,000
25	26,949	26,229	27,691	6596572	637550	10,347	0,000	 V 			15,144	148367	1,011	1,145	2,177	1,032	0	0	0,000	0,000
26	27,872	27,691	28,096	3051	157	19,383	0,000	 V 			15,697	0	0,000	0,000	0,000	1,037	0	0	0,000	0,000
27	30,170	29,237	30,688	5287032	507975	10,408	0,000	   			17,074	183156	0,819	1,133	0,000	1,088	0	0	0,000	0,000
28	30,928	30,688	31,061	124390	11015	11,292	0,000	 V 			17,527	151738	0,989	0,000	2,527	1,027	0	0	0,000	0,000
29	31,176	31,061	31,403	76087	7094	10,726	0,000	 V 			17,676	129615	1,157	0,000	0,749	1,009	0	0	0,000	0,000
30	31,562	31,403	31,680	9537	818	11,659	0,000	 V 			17,907	116036	1,293	0,000	1,075	1,013	0	0	0,000	0,000
31	31,781	31,680	31,968	4045	383	10,561	0,000	 V 			18,039	36904	4,065	0,000	0,425	1,007	0	0	0,000	0,000
32	33,715	33,077	33,792	106489	8290	12,845	0,000	   			19,197	245948	0,610	0,000	4,142	1,064	0	0	0,000	0,000
33	34,276	33,792	34,581	3700132	647232	5,717	0,000	 V 			19,533	779227	0,192	0,944	2,626	1,018	0	0	0,000	0,000
34	34,788	34,581	34,880	98781	8798	11,227	0,000	 V 			19,840	242741	0,618	0,000	2,339	1,016	0	0	0,000	0,000
35	35,072	34,880	35,413	728838	79089	9,215	0,000	 V 			20,010	527902	0,284	0,000	1,195	1,009	0	0	0,000	0,000
36	35,481	35,413	35,552	102498	15132	6,773	0,000	 V 			20,255	189158	0,793	0,000	1,573	1,012	0	0	0,000	0,000
37	35,590	35,552	35,744	87848	10313	8,518	0,000	 V 			20,321	17892	8,384	0,000	0,158	1,003	0	0	0,000	0,000
38	35,856	35,744	35,979	73951	6308	11,723	0,000	 V 			20,480	60419	2,483	0,000	0,322	1,008	0	0	0,000	0,000
39	36,026	35,979	36,085	20768	3427	6,059	0,000	 V 			20,582	0	0,000	0,000	0,000	1,005	0	0	0,000	0,000
40	36,330	36,085	36,459	44360	2481	17,876	0,000	 V 			20,764	12189	12,306	0,000	0,000	1,009	0	0	0,000	0,000
41	36,782	36,683	36,875	1183	269	4,406	0,000	   			21,035	1183962	0,127	0,885	0,623	1,013	0	0	0,000	0,000
42	37,022	36,885	37,131	6558	1140	5,751	0,000	   			21,178	762690	0,197	0,917	1,570	1,007	0	0	0,000	0,000
43	37,214	37,131	37,376	2741	544	5,036	0,000	 V 			21,293	904686	0,166	0,000	1,179	1,005	0	0	0,000	0,000
44	37,792	37,664	38,091	103023	2539	40,575	0,000	   			21,640	0	0,000	0,000	0,000	1,016	0	0	0,000	0,000
45	38,890	38,091	40,085	2628281	55106	47,695	0,000	 V 			22,297	136099	1,102	0,000	0,000	1,030	0	0	0,000	0,000

[Compound Results(PDA)]
# of IDs	0

[PDA Multi Chromatogram(Ch1)]
# of Points	      4689
Interval(msec)	640
Start Time(min)	0
End Time(min)	50,0053
Intensity Units	mAU
Intensity Multiplier	1
Type	MultiChrom
Wavelength(nm)	254
Bandwidth(nm)	4
R.Time (min)	Intensity
0,00000	0
0,01067	0
0,02133	0
0,03200	0
0,04267	0
0,05333	0
0,06400	0
0,07467	0
0,08533	0
0,09600	0
0,10667	0
0,11733	5
0,12800	-3
0,13867	-4
0,14933	-15
0,16000	-15
0,17067	-12
0,18133	-13
0,19200	-9
0,20267	-15
0,21333	-15
0,22400	-10
0,23467	-6
0,24533	-6
0,25600	4
0,26667	5
0,27733	11
0,28800	14
0,29867	17
0,30933	24
0,32000	27
0,33067	30
0,34133	31
0,35200	37
0,36267	36
0,37333	37
0,38400	44
0,39467	49
0,40533	56
0,41600	62
0,42667	67
0,43733	70
0,44800	73
0,45867	87
0,46933	89
0,48000	94
0,49067	103
0,50133	100
0,51200	105
0,52267	103
0,53333	106
0,54400	112
0,55467	117
0,56533	114
0,57600	121
0,58667	126
0,59733	137
0,60800	140
0,61867	144
0,62933	152
0,64000	155
0,65067	155
0,66133	156
0,67200	157
0,68267	162
0,69333	165
0,70400	168
0,71467	171
0,72533	181
0,73600	181
0,74667	176
0,75733	181
0,76800	181
0,77867	177
0,78933	182
0,80000	187
0,81067	189
0,82133	194
0,83200	183
0,84267	183
0,85333	185
0,86400	184
0,87467	185
0,88533	194
0,89600	202
0,90667	208
0,91733	199
0,92800	199
0,93867	207
0,94933	212
0,96000	206
0,97067	196
0,98133	198
0,99200	194
1,00267	199
1,01333	195
1,02400	203
1,03467	202
1,04533	205
1,05600	195
1,06667	201
1,07733	200
1,08800	197
1,09867	197
1,10933	198
1,12000	201
1,13067	198
1,14133	193
1,15200	194
1,16267	206
1,17333	201
1,18400	201
1,19467	202
1,20533	201
1,21600	207
1,22667	204
1,23733	203
1,24800	201
1,25867	202
1,26933	191
1,28000	197
1,29067	196
1,30133	195
1,31200	195
1,32267	188
1,33333	167
1,34400	139
1,35467	84
1,36533	17
1,37600	-56
1,38667	-111
1,39733	-149
1,40800	-173
1,41867	-181
1,42933	-178
1,44000	-166
1,45067	-144
1,46133	-106
1,47200	-59
1,48267	-2
1,49333	47
1,50400	98
1,51467	134
1,52533	172
1,53600	201
1,54667	247
1,55733	360
1,56800	647
1,57867	1234
1,58933	1983
1,60000	2559
1,61067	2737
1,62133	2556
1,63200	2262
1,64267	3683
1,65333	8609
1,66400	11762
1,67467	11749
1,68533	10574
1,69600	9173
1,70667	7788
1,71733	6406
1,72800	4846
1,73867	2984
1,74933	977
1,76000	-931
1,77067	-2571
1,78133	-3892
1,79200	-4972
1,80267	-5814
1,81333	-6364
1,82400	-6559
1,83467	-6398
1,84533	-5915
1,85600	-5172
1,86667	-4301
1,87733	-3384
1,88800	-2529
1,89867	-1801
1,90933	-1235
1,92000	-809
1,93067	-517
1,94133	-335
1,95200	-221
1,96267	-155
1,97333	-113
1,98400	-98
1,99467	-86
2,00533	-73
2,01600	-56
2,02667	-49
2,03733	-38
2,04800	-20
2,05867	-5
2,06933	23
2,08000	39
2,09067	61
2,10133	76
2,11200	94
2,12267	111
2,13333	119
2,14400	132
2,15467	141
2,16533	145
2,17600	149
2,18667	155
2,19733	162
2,20800	165
2,21867	163
2,22933	172
2,24000	191
2,25067	191
2,26133	195
2,27200	207
2,28267	211
2,29333	210
2,30400	213
2,31467	211
2,32533	210
2,33600	213
2,34667	214
2,35733	211
2,36800	216
2,37867	214
2,38933	214
2,40000	214
2,41067	212
2,42133	217
2,43200	225
2,44267	214
2,45333	217
2,46400	224
2,47467	221
2,48533	229
2,49600	234
2,50667	232
2,51733	231
2,52800	231
2,53867	233
2,54933	237
2,56000	243
2,57067	230
2,58133	231
2,59200	225
2,60267	228
2,61333	221
2,62400	212
2,63467	204
2,64533	183
2,65600	154
2,66667	94
2,67733	13
2,68800	-58
2,69867	-124
2,70933	-182
2,72000	-211
2,73067	-209
2,74133	-196
2,75200	-160
2,76267	-111
2,77333	-55
2,78400	-10
2,79467	42
2,80533	76
2,81600	118
2,82667	135
2,83733	164
2,84800	182
2,85867	189
2,86933	198
2,88000	206
2,89067	205
2,90133	199
2,91200	209
2,92267	211
2,93333	215
2,94400	208
2,95467	206
2,96533	202
2,97600	204
2,98667	203
2,99733	201
3,00800	203
3,01867	205
3,02933	200
3,04000	208
3,05067	209
3,06133	219
3,07200	215
3,08267	216
3,09333	221
3,10400	226
3,11467	222
3,12533	226
3,13600	228
3,14667	222
3,15733	229
3,16800	219
3,17867	223
3,18933	218
3,20000	212
3,21067	211
3,22133	213
3,23200	212
3,24267	211
3,25333	206
3,26400	203
3,27467	193
3,28533	207
3,29600	199
3,30667	201
3,31733	206
3,32800	202
3,33867	191
3,34933	198
3,36000	194
3,37067	194
3,38133	188
3,39200	197
3,40267	195
3,41333	187
3,42400	187
3,43467	200
3,44533	211
3,45600	231
3,46667	259
3,47733	267
3,48800	272
3,49867	260
3,50933	233
3,52000	214
3,53067	186
3,54133	163
3,55200	153
3,56267	136
3,57333	132
3,58400	139
3,59467	138
3,60533	140
3,61600	145
3,62667	153
3,63733	154
3,64800	176
3,65867	188
3,66933	189
3,68000	185
3,69067	187
3,70133	196
3,71200	204
3,72267	207
3,73333	209
3,74400	213
3,75467	222
3,76533	213
3,77600	220
3,78667	213
3,79733	222
3,80800	219
3,81867	225
3,82933	216
3,84000	211
3,85067	214
3,86133	220
3,87200	224
3,88267	214
3,89333	222
3,90400	214
3,91467	204
3,92533	208
3,93600	207
3,94667	204
3,95733	208
3,96800	214
3,97867	215
3,98933	209
4,00000	201
4,01067	199
4,02133	202
4,03200	204
4,04267	207
4,05333	216
4,06400	213
4,07467	209
4,08533	210
4,09600	206
4,10667	205
4,11733	210
4,12800	205
4,13867	208
4,14933	206
4,16000	211
4,17067	211
4,18133	207
4,19200	209
4,20267	211
4,21333	210
4,22400	207
4,23467	215
4,24533	205
4,25600	204
4,26667	197
4,27733	207
4,28800	200
4,29867	202
4,30933	195
4,32000	196
4,33067	197
4,34133	200
4,35200	201
4,36267	202
4,37333	204
4,38400	207
4,39467	210
4,40533	205
4,41600	202
4,42667	206
4,43733	208
4,44800	213
4,45867	219
4,46933	211
4,48000	208
4,49067	212
4,50133	213
4,51200	214
4,52267	213
4,53333	208
4,54400	202
4,55467	210
4,56533	213
4,57600	212
4,58667	213
4,59733	213
4,60800	220
4,61867	216
4,62933	222
4,64000	222
4,65067	223
4,66133	226
4,67200	227
4,68267	231
4,69333	233
4,70400	235
4,71467	243
4,72533	237
4,73600	238
4,74667	247
4,75733	244
4,76800	243
4,77867	249
4,78933	256
4,80000	259
4,81067	259
4,82133	275
4,83200	270
4,84267	274
4,85333	271
4,86400	273
4,87467	278
4,88533	276
4,89600	287
4,90667	284
4,91733	289
4,92800	297
4,93867	297
4,94933	311
4,96000	313
4,97067	310
4,98133	307
4,99200	319
5,00267	321
5,01333	324
5,02400	324
5,03467	337
5,04533	334
5,05600	331
5,06667	334
5,07733	345
5,08800	347
5,09867	350
5,10933	354
5,12000	356
5,13067	356
5,14133	365
5,15200	363
5,16267	367
5,17333	373
5,18400	368
5,19467	374
5,20533	380
5,21600	385
5,22667	386
5,23733	394
5,24800	390
5,25867	400
5,26933	404
5,28000	409
5,29067	401
5,30133	411
5,31200	418
5,32267	422
5,33333	423
5,34400	418
5,35467	425
5,36533	427
5,37600	427
5,38667	436
5,39733	444
5,40800	450
5,41867	454
5,42933	444
5,44000	451
5,45067	451
5,46133	454
5,47200	459
5,48267	469
5,49333	469
5,50400	473
5,51467	474
5,52533	476
5,53600	483
5,54667	482
5,55733	481
5,56800	486
5,57867	488
5,58933	499
5,60000	496
5,61067	502
5,62133	502
5,63200	508
5,64267	512
5,65333	510
5,66400	515
5,67467	524
5,68533	517
5,69600	517
5,70667	523
5,71733	531
5,72800	537
5,73867	543
5,74933	544
5,76000	541
5,77067	552
5,78133	552
5,79200	563
5,80267	562
5,81333	563
5,82400	576
5,83467	591
5,84533	606
5,85600	633
5,86667	662
5,87733	692
5,88800	731
5,89867	770
5,90933	817
5,92000	856
5,93067	894
5,94133	928
5,95200	965
5,96267	988
5,97333	1010
5,98400	1022
5,99467	1017
6,00533	1019
6,01600	1009
6,02667	994
6,03733	975
6,04800	959
6,05867	926
6,06933	902
6,08000	877
6,09067	849
6,10133	825
6,11200	796
6,12267	772
6,13333	747
6,14400	735
6,15467	719
6,16533	702
6,17600	694
6,18667	684
6,19733	679
6,20800	675
6,21867	671
6,22933	665
6,24000	664
6,25067	666
6,26133	667
6,27200	669
6,28267	674
6,29333	671
6,30400	682
6,31467	682
6,32533	690
6,33600	690
6,34667	690
6,35733	699
6,36800	697
6,37867	710
6,38933	709
6,40000	709
6,41067	711
6,42133	718
6,43200	727
6,44267	732
6,45333	734
6,46400	740
6,47467	742
6,48533	744
6,49600	749
6,50667	750
6,51733	750
6,52800	753
6,53867	757
6,54933	763
6,56000	756
6,57067	763
6,58133	771
6,59200	777
6,60267	780
6,61333	782
6,62400	788
6,63467	789
6,64533	789
6,65600	793
6,66667	794
6,67733	795
6,68800	799
6,69867	802
6,70933	807
6,72000	801
6,73067	811
6,74133	821
6,75200	820
6,76267	818
6,77333	814
6,78400	811
6,79467	816
6,80533	809
6,81600	819
6,82667	811
6,83733	817
6,84800	813
6,85867	818
6,86933	823
6,88000	822
6,89067	829
6,90133	828
6,91200	828
6,92267	825
6,93333	836
6,94400	840
6,95467	842
6,96533	842
6,97600	846
6,98667	851
6,99733	853
7,00800	855
7,01867	851
7,02933	855
7,04000	864
7,05067	873
7,06133	869
7,07200	874
7,08267	865
7,09333	870
7,10400	862
7,11467	868
7,12533	868
7,13600	866
7,14667	875
7,15733	877
7,16800	874
7,17867	873
7,18933	880
7,20000	885
7,21067	890
7,22133	883
7,23200	890
7,24267	893
7,25333	899
7,26400	899
7,27467	900
7,28533	907
7,29600	912
7,30667	915
7,31733	920
7,32800	923
7,33867	928
7,34933	918
7,36000	928
7,37067	930
7,38133	938
7,39200	939
7,40267	943
7,41333	950
7,42400	958
7,43467	961
7,44533	957
7,45600	961
7,46667	966
7,47733	966
7,48800	967
7,49867	973
7,50933	971
7,52000	974
7,53067	973
7,54133	975
7,55200	987
7,56267	989
7,57333	992
7,58400	994
7,59467	996
7,60533	1000
7,61600	1007
7,62667	1008
7,63733	1018
7,64800	1017
7,65867	1022
7,66933	1028
7,68000	1029
7,69067	1034
7,70133	1037
7,71200	1045
7,72267	1050
7,73333	1055
7,74400	1062
7,75467	1066
7,76533	1072
7,77600	1074
7,78667	1074
7,79733	1072
7,80800	1074
7,81867	1076
7,82933	1078
7,84000	1075
7,85067	1072
7,86133	1075
7,87200	1077
7,88267	1082
7,89333	1095
7,90400	1082
7,91467	1080
7,92533	1082
7,93600	1078
7,94667	1088
7,95733	1091
7,96800	1096
7,97867	1087
7,98933	1097
8,00000	1102
8,01067	1098
8,02133	1101
8,03200	1104
8,04267	1114
8,05333	1113
8,06400	1108
8,07467	1111
8,08533	1107
8,09600	1118
8,10667	1121
8,11733	1118
8,12800	1117
8,13867	1125
8,14933	1116
8,16000	1119
8,17067	1123
8,18133	1123
8,19200	1124
8,20267	1135
8,21333	1137
8,22400	1138
8,23467	1146
8,24533	1149
8,25600	1150
8,26667	1152
8,27733	1151
8,28800	1159
8,29867	1171
8,30933	1180
8,32000	1196
8,33067	1225
8,34133	1270
8,35200	1339
8,36267	1447
8,37333	1602
8,38400	1834
8,39467	2157
8,40533	2588
8,41600	3156
8,42667	3870
8,43733	4754
8,44800	5778
8,45867	6926
8,46933	8179
8,48000	9482
8,49067	10782
8,50133	12022
8,51200	13130
8,52267	14060
8,53333	14757
8,54400	15188
8,55467	15344
8,56533	15211
8,57600	14821
8,58667	14192
8,59733	13359
8,60800	12383
8,61867	11300
8,62933	10169
8,64000	9026
8,65067	7948
8,66133	6957
8,67200	6086
8,68267	5374
8,69333	4866
8,70400	4572
8,71467	4529
8,72533	4795
8,73600	5392
8,74667	6376
8,75733	7784
8,76800	9644
8,77867	11941
8,78933	14646
8,80000	17681
8,81067	20910
8,82133	24187
8,83200	27346
8,84267	30240
8,85333	32685
8,86400	34566
8,87467	35800
8,88533	36359
8,89600	36227
8,90667	35452
8,91733	34097
8,92800	32260
8,93867	30040
8,94933	27536
8,96000	24862
8,97067	22146
8,98133	19458
8,99200	16896
9,00267	14502
9,01333	12336
9,02400	10409
9,03467	8749
9,04533	7327
9,05600	6143
9,06667	5155
9,07733	4362
9,08800	3726
9,09867	3221
9,10933	2827
9,12000	2515
9,13067	2276
9,14133	2088
9,15200	1947
9,16267	1836
9,17333	1748
9,18400	1690
9,19467	1647
9,20533	1595
9,21600	1566
9,22667	1548
9,23733	1533
9,24800	1525
9,25867	1510
9,26933	1502
9,28000	1512
9,29067	1509
9,30133	1503
9,31200	1498
9,32267	1496
9,33333	1496
9,34400	1502
9,35467	1503
9,36533	1508
9,37600	1506
9,38667	1501
9,39733	1501
9,40800	1500
9,41867	1507
9,42933	1511
9,44000	1507
9,45067	1513
9,46133	1517
9,47200	1525
9,48267	1521
9,49333	1534
9,50400	1550
9,51467	1572
9,52533	1591
9,53600	1601
9,54667	1634
9,55733	1653
9,56800	1682
9,57867	1711
9,58933	1740
9,60000	1760
9,61067	1788
9,62133	1807
9,63200	1828
9,64267	1838
9,65333	1852
9,66400	1855
9,67467	1846
9,68533	1841
9,69600	1837
9,70667	1823
9,71733	1802
9,72800	1788
9,73867	1770
9,74933	1753
9,76000	1738
9,77067	1727
9,78133	1706
9,79200	1695
9,80267	1687
9,81333	1687
9,82400	1681
9,83467	1680
9,84533	1673
9,85600	1666
9,86667	1674
9,87733	1682
9,88800	1687
9,89867	1690
9,90933	1696
9,92000	1704
9,93067	1708
9,94133	1725
9,95200	1723
9,96267	1729
9,97333	1738
9,98400	1743
9,99467	1765
10,00533	1765
10,01600	1776
10,02667	1780
10,03733	1792
10,04800	1800
10,05867	1801
10,06933	1803
10,08000	1812
10,09067	1810
10,10133	1820
10,11200	1811
10,12267	1808
10,13333	1807
10,14400	1798
10,15467	1781
10,16533	1772
10,17600	1777
10,18667	1764
10,19733	1759
10,20800	1758
10,21867	1770
10,22933	1766
10,24000	1768
10,25067	1774
10,26133	1774
10,27200	1780
10,28267	1794
10,29333	1796
10,30400	1816
10,31467	1832
10,32533	1849
10,33600	1854
10,34667	1875
10,35733	1896
10,36800	1909
10,37867	1935
10,38933	1943
10,40000	1963
10,41067	1983
10,42133	2000
10,43200	2003
10,44267	2010
10,45333	2012
10,46400	2013
10,47467	2010
10,48533	1998
10,49600	1991
10,50667	1984
10,51733	1981
10,52800	1967
10,53867	1952
10,54933	1950
10,56000	1941
10,57067	1935
10,58133	1927
10,59200	1925
10,60267	1925
10,61333	1928
10,62400	1923
10,63467	1925
10,64533	1927
10,65600	1930
10,66667	1932
10,67733	1929
10,68800	1931
10,69867	1938
10,70933	1949
10,72000	1959
10,73067	1956
10,74133	1960
10,75200	1965
10,76267	1963
10,77333	1970
10,78400	1968
10,79467	1977
10,80533	1980
10,81600	1984
10,82667	1993
10,83733	1995
10,84800	1995
10,85867	2015
10,86933	2024
10,88000	2046
10,89067	2067
10,90133	2093
10,91200	2145
10,92267	2223
10,93333	2348
10,94400	2551
10,95467	2911
10,96533	3474
10,97600	4369
10,98667	5742
10,99733	7820
11,00800	10868
11,01867	15214
11,02933	21184
11,04000	29199
11,05067	39511
11,06133	52375
11,07200	67804
11,08267	85639
11,09333	105465
11,10400	126458
11,11467	147740
11,12533	168091
11,13600	186452
11,14667	201630
11,15733	212782
11,16800	219276
11,17867	220877
11,18933	217648
11,20000	210031
11,21067	198706
11,22133	184434
11,23200	168212
11,24267	150863
11,25333	133245
11,26400	116065
11,27467	99810
11,28533	84893
11,29600	71511
11,30667	59812
11,31733	49706
11,32800	41148
11,33867	33979
11,34933	28052
11,36000	23167
11,37067	19191
11,38133	15951
11,39200	13337
11,40267	11224
11,41333	9537
11,42400	8183
11,43467	7109
11,44533	6242
11,45600	5570
11,46667	5035
11,47733	4616
11,48800	4275
11,49867	4011
11,50933	3799
11,52000	3620
11,53067	3473
11,54133	3347
11,55200	3236
11,56267	3136
11,57333	3047
11,58400	2978
11,59467	2909
11,60533	2852
11,61600	2809
11,62667	2765
11,63733	2730
11,64800	2692
11,65867	2668
11,66933	2648
11,68000	2629
11,69067	2613
11,70133	2594
11,71200	2589
11,72267	2580
11,73333	2568
11,74400	2561
11,75467	2553
11,76533	2549
11,77600	2545
11,78667	2543
11,79733	2530
11,80800	2521
11,81867	2515
11,82933	2513
11,84000	2506
11,85067	2501
11,86133	2497
11,87200	2495
11,88267	2495
11,89333	2493
11,90400	2510
11,91467	2534
11,92533	2575
11,93600	2641
11,94667	2747
11,95733	2937
11,96800	3243
11,97867	3745
11,98933	4560
12,00000	5872
12,01067	7936
12,02133	11125
12,03200	15895
12,04267	22906
12,05333	32853
12,06400	46621
12,07467	64901
12,08533	88486
12,09600	117565
12,10667	152184
12,11733	191408
12,12800	233945
12,13867	277641
12,14933	320085
12,16000	358684
12,17067	390905
12,18133	414899
12,19200	429342
12,20267	433803
12,21333	428551
12,22400	414435
12,23467	392950
12,24533	365570
12,25600	334207
12,26667	300414
12,27733	265876
12,28800	231743
12,29867	199237
12,30933	169065
12,32000	141790
12,33067	117672
12,34133	96736
12,35200	78957
12,36267	64037
12,37333	51740
12,38400	41680
12,39467	33570
12,40533	27039
12,41600	21840
12,42667	17698
12,43733	14437
12,44800	11849
12,45867	9824
12,46933	8232
12,48000	6976
12,49067	6009
12,50133	5259
12,51200	4675
12,52267	4234
12,53333	3885
12,54400	3630
12,55467	3437
12,56533	3279
12,57600	3177
12,58667	3099
12,59733	3034
12,60800	2990
12,61867	2954
12,62933	2919
12,64000	2900
12,65067	2879
12,66133	2863
12,67200	2853
12,68267	2834
12,69333	2833
12,70400	2818
12,71467	2811
12,72533	2801
12,73600	2795
12,74667	2785
12,75733	2784
12,76800	2783
12,77867	2782
12,78933	2779
12,80000	2774
12,81067	2764
12,82133	2766
12,83200	2761
12,84267	2765
12,85333	2756
12,86400	2759
12,87467	2760
12,88533	2757
12,89600	2753
12,90667	2749
12,91733	2747
12,92800	2748
12,93867	2745
12,94933	2748
12,96000	2752
12,97067	2747
12,98133	2754
12,99200	2759
13,00267	2759
13,01333	2756
13,02400	2748
13,03467	2757
13,04533	2757
13,05600	2757
13,06667	2765
13,07733	2763
13,08800	2763
13,09867	2769
13,10933	2772
13,12000	2770
13,13067	2778
13,14133	2790
13,15200	2837
13,16267	2913
13,17333	3168
13,18400	3790
13,19467	5270
13,20533	8478
13,21600	14649
13,22667	25131
13,23733	40683
13,24800	61068
13,25867	84538
13,26933	108819
13,28000	131341
13,29067	150423
13,30133	165059
13,31200	175126
13,32267	181012
13,33333	183384
13,34400	182933
13,35467	180300
13,36533	176068
13,37600	170660
13,38667	164419
13,39733	157609
13,40800	150418
13,41867	143048
13,42933	135571
13,44000	128151
13,45067	120810
13,46133	113673
13,47200	106745
13,48267	100080
13,49333	93670
13,50400	87577
13,51467	81774
13,52533	76288
13,53600	71118
13,54667	66249
13,55733	61685
13,56800	57421
13,57867	53428
13,58933	49696
13,60000	46241
13,61067	43015
13,62133	40030
13,63200	37266
13,64267	34721
13,65333	32347
13,66400	30169
13,67467	28159
13,68533	26304
13,69600	24591
13,70667	23024
13,71733	21580
13,72800	20249
13,73867	19032
13,74933	17909
13,76000	16874
13,77067	15920
13,78133	15060
13,79200	14251
13,80267	13516
13,81333	12834
13,82400	12210
13,83467	11629
13,84533	11098
13,85600	10614
13,86667	10174
13,87733	9749
13,88800	9363
13,89867	9012
13,90933	8674
13,92000	8366
13,93067	8083
13,94133	7821
13,95200	7584
13,96267	7348
13,97333	7144
13,98400	6947
13,99467	6759
14,00533	6579
14,01600	6428
14,02667	6277
14,03733	6129
14,04800	5991
14,05867	5869
14,06933	5764
14,08000	5652
14,09067	5548
14,10133	5458
14,11200	5360
14,12267	5283
14,13333	5200
14,14400	5132
14,15467	5051
14,16533	4989
14,17600	4919
14,18667	4857
14,19733	4797
14,20800	4745
14,21867	4693
14,22933	4653
14,24000	4602
14,25067	4553
14,26133	4513
14,27200	4470
14,28267	4434
14,29333	4397
14,30400	4357
14,31467	4327
14,32533	4297
14,33600	4265
14,34667	4225
14,35733	4200
14,36800	4172
14,37867	4144
14,38933	4123
14,40000	4103
14,41067	4068
14,42133	4048
14,43200	4041
14,44267	4018
14,45333	3999
14,46400	3984
14,47467	3976
14,48533	3963
14,49600	3949
14,50667	3939
14,51733	3934
14,52800	3937
14,53867	3934
14,54933	3927
14,56000	3919
14,57067	3923
14,58133	3925
14,59200	3919
14,60267	3912
14,61333	3903
14,62400	3895
14,63467	3887
14,64533	3875
14,65600	3870
14,66667	3852
14,67733	3835
14,68800	3820
14,69867	3808
14,70933	3802
14,72000	3782
14,73067	3773
14,74133	3765
14,75200	3758
14,76267	3751
14,77333	3743
14,78400	3732
14,79467	3729
14,80533	3732
14,81600	3728
14,82667	3720
14,83733	3709
14,84800	3707
14,85867	3701
14,86933	3701
14,88000	3698
14,89067	3691
14,90133	3689
14,91200	3686
14,92267	3692
14,93333	3679
14,94400	3679
14,95467	3671
14,96533	3674
14,97600	3683
14,98667	3679
14,99733	3670
15,00800	3667
15,01867	3661
15,02933	3663
15,04000	3665
15,05067	3669
15,06133	3676
15,07200	3669
15,08267	3667
15,09333	3674
15,10400	3671
15,11467	3664
15,12533	3679
15,13600	3683
15,14667	3672
15,15733	3669
15,16800	3674
15,17867	3677
15,18933	3676
15,20000	3675
15,21067	3671
15,22133	3664
15,23200	3668
15,24267	3675
15,25333	3676
15,26400	3677
15,27467	3673
15,28533	3672
15,29600	3677
15,30667	3680
15,31733	3688
15,32800	3686
15,33867	3681
15,34933	3688
15,36000	3691
15,37067	3703
15,38133	3706
15,39200	3715
15,40267	3719
15,41333	3720
15,42400	3719
15,43467	3728
15,44533	3727
15,45600	3738
15,46667	3742
15,47733	3748
15,48800	3757
15,49867	3758
15,50933	3768
15,52000	3772
15,53067	3774
15,54133	3786
15,55200	3800
15,56267	3819
15,57333	3843
15,58400	3865
15,59467	3896
15,60533	3920
15,61600	3949
15,62667	3977
15,63733	4001
15,64800	4031
15,65867	4052
15,66933	4072
15,68000	4078
15,69067	4068
15,70133	4058
15,71200	4049
15,72267	4029
15,73333	4008
15,74400	3982
15,75467	3960
15,76533	3939
15,77600	3921
15,78667	3896
15,79733	3880
15,80800	3860
15,81867	3844
15,82933	3840
15,84000	3840
15,85067	3834
15,86133	3830
15,87200	3829
15,88267	3829
15,89333	3828
15,90400	3822
15,91467	3829
15,92533	3828
15,93600	3832
15,94667	3835
15,95733	3840
15,96800	3839
15,97867	3834
15,98933	3838
16,00000	3843
16,01067	3852
16,02133	3855
16,03200	3853
16,04267	3863
16,05333	3870
16,06400	3870
16,07467	3869
16,08533	3871
16,09600	3881
16,10667	3879
16,11733	3889
16,12800	3893
16,13867	3888
16,14933	3898
16,16000	3904
16,17067	3904
16,18133	3912
16,19200	3908
16,20267	3914
16,21333	3913
16,22400	3917
16,23467	3921
16,24533	3927
16,25600	3928
16,26667	3933
16,27733	3947
16,28800	3955
16,29867	3958
16,30933	3965
16,32000	3973
16,33067	3988
16,34133	3996
16,35200	4012
16,36267	4020
16,37333	4023
16,38400	4034
16,39467	4049
16,40533	4054
16,41600	4062
16,42667	4062
16,43733	4074
16,44800	4071
16,45867	4080
16,46933	4084
16,48000	4085
16,49067	4085
16,50133	4090
16,51200	4084
16,52267	4082
16,53333	4074
16,54400	4070
16,55467	4078
16,56533	4083
16,57600	4085
16,58667	4087
16,59733	4084
16,60800	4089
16,61867	4092
16,62933	4105
16,64000	4111
16,65067	4107
16,66133	4103
16,67200	4108
16,68267	4107
16,69333	4116
16,70400	4120
16,71467	4124
16,72533	4130
16,73600	4130
16,74667	4136
16,75733	4147
16,76800	4156
16,77867	4162
16,78933	4178
16,80000	4185
16,81067	4204
16,82133	4222
16,83200	4242
16,84267	4271
16,85333	4302
16,86400	4333
16,87467	4374
16,88533	4400
16,89600	4434
16,90667	4459
16,91733	4489
16,92800	4498
16,93867	4499
16,94933	4500
16,96000	4505
16,97067	4498
16,98133	4495
16,99200	4493
17,00267	4477
17,01333	4471
17,02400	4469
17,03467	4460
17,04533	4457
17,05600	4460
17,06667	4459
17,07733	4454
17,08800	4457
17,09867	4452
17,10933	4445
17,12000	4442
17,13067	4438
17,14133	4432
17,15200	4436
17,16267	4429
17,17333	4415
17,18400	4410
17,19467	4407
17,20533	4405
17,21600	4403
17,22667	4397
17,23733	4393
17,24800	4401
17,25867	4400
17,26933	4412
17,28000	4419
17,29067	4428
17,30133	4433
17,31200	4438
17,32267	4448
17,33333	4443
17,34400	4461
17,35467	4476
17,36533	4481
17,37600	4488
17,38667	4507
17,39733	4509
17,40800	4518
17,41867	4525
17,42933	4521
17,44000	4532
17,45067	4543
17,46133	4546
17,47200	4550
17,48267	4549
17,49333	4547
17,50400	4549
17,51467	4554
17,52533	4559
17,53600	4564
17,54667	4567
17,55733	4570
17,56800	4574
17,57867	4590
17,58933	4594
17,60000	4603
17,61067	4615
17,62133	4629
17,63200	4644
17,64267	4661
17,65333	4676
17,66400	4687
17,67467	4713
17,68533	4732
17,69600	4746
17,70667	4764
17,71733	4772
17,72800	4786
17,73867	4781
17,74933	4788
17,76000	4789
17,77067	4798
17,78133	4800
17,79200	4802
17,80267	4793
17,81333	4781
17,82400	4771
17,83467	4769
17,84533	4774
17,85600	4770
17,86667	4776
17,87733	4771
17,88800	4780
17,89867	4793
17,90933	4798
17,92000	4815
17,93067	4829
17,94133	4840
17,95200	4866
17,96267	4887
17,97333	4906
17,98400	4919
17,99467	4944
18,00533	4969
18,01600	4992
18,02667	5011
18,03733	5030
18,04800	5048
18,05867	5067
18,06933	5076
18,08000	5102
18,09067	5116
18,10133	5134
18,11200	5148
18,12267	5159
18,13333	5164
18,14400	5170
18,15467	5176
18,16533	5186
18,17600	5201
18,18667	5209
18,19733	5220
18,20800	5226
18,21867	5234
18,22933	5242
18,24000	5244
18,25067	5247
18,26133	5256
18,27200	5253
18,28267	5249
18,29333	5252
18,30400	5255
18,31467	5258
18,32533	5267
18,33600	5274
18,34667	5273
18,35733	5283
18,36800	5296
18,37867	5298
18,38933	5309
18,40000	5319
18,41067	5325
18,42133	5316
18,43200	5317
18,44267	5311
18,45333	5296
18,46400	5274
18,47467	5260
18,48533	5241
18,49600	5229
18,50667	5208
18,51733	5192
18,52800	5177
18,53867	5171
18,54933	5161
18,56000	5157
18,57067	5155
18,58133	5155
18,59200	5153
18,60267	5150
18,61333	5145
18,62400	5161
18,63467	5163
18,64533	5172
18,65600	5179
18,66667	5184
18,67733	5190
18,68800	5201
18,69867	5201
18,70933	5197
18,72000	5199
18,73067	5199
18,74133	5195
18,75200	5189
18,76267	5196
18,77333	5203
18,78400	5201
18,79467	5199
18,80533	5193
18,81600	5197
18,82667	5192
18,83733	5191
18,84800	5198
18,85867	5196
18,86933	5207
18,88000	5200
18,89067	5203
18,90133	5213
18,91200	5214
18,92267	5222
18,93333	5222
18,94400	5230
18,95467	5227
18,96533	5237
18,97600	5238
18,98667	5242
18,99733	5244
19,00800	5247
19,01867	5260
19,02933	5257
19,04000	5278
19,05067	5281
19,06133	5290
19,07200	5303
19,08267	5304
19,09333	5321
19,10400	5335
19,11467	5351
19,12533	5373
19,13600	5389
19,14667	5400
19,15733	5417
19,16800	5431
19,17867	5439
19,18933	5448
19,20000	5458
19,21067	5466
19,22133	5465
19,23200	5459
19,24267	5453
19,25333	5443
19,26400	5431
19,27467	5419
19,28533	5416
19,29600	5410
19,30667	5408
19,31733	5405
19,32800	5393
19,33867	5401
19,34933	5393
19,36000	5387
19,37067	5393
19,38133	5388
19,39200	5395
19,40267	5402
19,41333	5400
19,42400	5400
19,43467	5409
19,44533	5408
19,45600	5421
19,46667	5431
19,47733	5438
19,48800	5441
19,49867	5444
19,50933	5452
19,52000	5450
19,53067	5454
19,54133	5462
19,55200	5471
19,56267	5475
19,57333	5492
19,58400	5497
19,59467	5503
19,60533	5510
19,61600	5523
19,62667	5545
19,63733	5553
19,64800	5568
19,65867	5597
19,66933	5627
19,68000	5658
19,69067	5696
19,70133	5727
19,71200	5764
19,72267	5805
19,73333	5843
19,74400	5879
19,75467	5893
19,76533	5914
19,77600	5935
19,78667	5933
19,79733	5929
19,80800	5928
19,81867	5911
19,82933	5888
19,84000	5866
19,85067	5835
19,86133	5809
19,87200	5790
19,88267	5760
19,89333	5741
19,90400	5721
19,91467	5707
19,92533	5690
19,93600	5687
19,94667	5680
19,95733	5673
19,96800	5671
19,97867	5661
19,98933	5661
20,00000	5653
20,01067	5656
20,02133	5657
20,03200	5661
20,04267	5655
20,05333	5654
20,06400	5670
20,07467	5673
20,08533	5674
20,09600	5680
20,10667	5683
20,11733	5692
20,12800	5710
20,13867	5735
20,14933	5746
20,16000	5767
20,17067	5789
20,18133	5815
20,19200	5852
20,20267	5886
20,21333	5915
20,22400	5945
20,23467	5971
20,24533	6006
20,25600	6021
20,26667	6038
20,27733	6048
20,28800	6048
20,29867	6044
20,30933	6040
20,32000	6028
20,33067	6011
20,34133	5990
20,35200	5976
20,36267	5965
20,37333	5946
20,38400	5937
20,39467	5921
20,40533	5903
20,41600	5904
20,42667	5899
20,43733	5894
20,44800	5895
20,45867	5894
20,46933	5886
20,48000	5885
20,49067	5880
20,50133	5876
20,51200	5876
20,52267	5888
20,53333	5885
20,54400	5891
20,55467	5898
20,56533	5904
20,57600	5900
20,58667	5908
20,59733	5921
20,60800	5929
20,61867	5931
20,62933	5932
20,64000	5943
20,65067	5939
20,66133	5945
20,67200	5953
20,68267	5955
20,69333	5960
20,70400	5966
20,71467	5964
20,72533	5980
20,73600	5982
20,74667	5999
20,75733	6002
20,76800	6003
20,77867	6016
20,78933	6023
20,80000	6039
20,81067	6061
20,82133	6079
20,83200	6110
20,84267	6137
20,85333	6160
20,86400	6196
20,87467	6235
20,88533	6262
20,89600	6300
20,90667	6339
20,91733	6368
20,92800	6417
20,93867	6463
20,94933	6494
20,96000	6531
20,97067	6570
20,98133	6610
20,99200	6657
21,00267	6689
21,01333	6707
21,02400	6724
21,03467	6731
21,04533	6732
21,05600	6727
21,06667	6699
21,07733	6669
21,08800	6623
21,09867	6577
21,10933	6533
21,12000	6485
21,13067	6446
21,14133	6407
21,15200	6373
21,16267	6345
21,17333	6314
21,18400	6295
21,19467	6279
21,20533	6268
21,21600	6264
21,22667	6265
21,23733	6262
21,24800	6263
21,25867	6267
21,26933	6277
21,28000	6287
21,29067	6294
21,30133	6292
21,31200	6311
21,32267	6311
21,33333	6317
21,34400	6324
21,35467	6331
21,36533	6331
21,37600	6336
21,38667	6339
21,39733	6345
21,40800	6352
21,41867	6352
21,42933	6355
21,44000	6379
21,45067	6400
21,46133	6425
21,47200	6454
21,48267	6497
21,49333	6536
21,50400	6607
21,51467	6681
21,52533	6775
21,53600	6885
21,54667	6997
21,55733	7126
21,56800	7258
21,57867	7382
21,58933	7500
21,60000	7603
21,61067	7699
21,62133	7769
21,63200	7808
21,64267	7821
21,65333	7808
21,66400	7760
21,67467	7695
21,68533	7612
21,69600	7515
21,70667	7425
21,71733	7322
21,72800	7212
21,73867	7120
21,74933	7038
21,76000	6970
21,77067	6901
21,78133	6837
21,79200	6791
21,80267	6753
21,81333	6712
21,82400	6684
21,83467	6666
21,84533	6645
21,85600	6636
21,86667	6634
21,87733	6625
21,88800	6622
21,89867	6632
21,90933	6626
21,92000	6629
21,93067	6639
21,94133	6657
21,95200	6673
21,96267	6700
21,97333	6737
21,98400	6787
21,99467	6870
22,00533	6980
22,01600	7138
22,02667	7347
22,03733	7632
22,04800	8005
22,05867	8482
22,06933	9073
22,08000	9776
22,09067	10579
22,10133	11473
22,11200	12436
22,12267	13427
22,13333	14385
22,14400	15260
22,15467	16001
22,16533	16565
22,17600	16920
22,18667	17024
22,19733	17097
22,20800	16611
22,21867	16008
22,22933	15288
22,24000	14468
22,25067	13595
22,26133	12718
22,27200	11854
22,28267	11060
22,29333	10351
22,30400	9721
22,31467	9183
22,32533	8719
22,33600	8356
22,34667	8047
22,35733	7806
22,36800	7617
22,37867	7465
22,38933	7341
22,40000	7246
22,41067	7165
22,42133	7105
22,43200	7062
22,44267	7018
22,45333	6984
22,46400	6972
22,47467	6949
22,48533	6934
22,49600	6931
22,50667	6934
22,51733	6934
22,52800	6931
22,53867	6933
22,54933	6938
22,56000	6949
22,57067	6948
22,58133	6948
22,59200	6960
22,60267	6972
22,61333	6970
22,62400	6970
22,63467	6976
22,64533	6976
22,65600	6981
22,66667	6986
22,67733	6989
22,68800	6984
22,69867	6999
22,70933	7010
22,72000	7011
22,73067	7016
22,74133	7034
22,75200	7038
22,76267	7055
22,77333	7059
22,78400	7068
22,79467	7074
22,80533	7082
22,81600	7089
22,82667	7097
22,83733	7092
22,84800	7088
22,85867	7090
22,86933	7081
22,88000	7091
22,89067	7094
22,90133	7104
22,91200	7110
22,92267	7117
22,93333	7117
22,94400	7124
22,95467	7124
22,96533	7137
22,97600	7143
22,98667	7147
22,99733	7146
23,00800	7146
23,01867	7146
23,02933	7157
23,04000	7157
23,05067	7158
23,06133	7173
23,07200	7172
23,08267	7172
23,09333	7181
23,10400	7194
23,11467	7196
23,12533	7202
23,13600	7214
23,14667	7229
23,15733	7241
23,16800	7244
23,17867	7258
23,18933	7257
23,20000	7268
23,21067	7289
23,22133	7298
23,23200	7309
23,24267	7327
23,25333	7341
23,26400	7348
23,27467	7355
23,28533	7359
23,29600	7372
23,30667	7377
23,31733	7385
23,32800	7384
23,33867	7387
23,34933	7387
23,36000	7387
23,37067	7393
23,38133	7396
23,39200	7392
23,40267	7384
23,41333	7386
23,42400	7381
23,43467	7375
23,44533	7375
23,45600	7380
23,46667	7376
23,47733	7377
23,48800	7373
23,49867	7378
23,50933	7384
23,52000	7378
23,53067	7378
23,54133	7377
23,55200	7380
23,56267	7379
23,57333	7394
23,58400	7394
23,59467	7402
23,60533	7402
23,61600	7408
23,62667	7412
23,63733	7409
23,64800	7416
23,65867	7418
23,66933	7438
23,68000	7454
23,69067	7462
23,70133	7470
23,71200	7497
23,72267	7502
23,73333	7507
23,74400	7522
23,75467	7545
23,76533	7554
23,77600	7567
23,78667	7581
23,79733	7581
23,80800	7596
23,81867	7606
23,82933	7617
23,84000	7618
23,85067	7623
23,86133	7632
23,87200	7634
23,88267	7643
23,89333	7646
23,90400	7652
23,91467	7661
23,92533	7656
23,93600	7655
23,94667	7651
23,95733	7656
23,96800	7648
23,97867	7646
23,98933	7646
24,00000	7647
24,01067	7649
24,02133	7651
24,03200	7652
24,04267	7658
24,05333	7669
24,06400	7681
24,07467	7689
24,08533	7696
24,09600	7707
24,10667	7713
24,11733	7724
24,12800	7729
24,13867	7750
24,14933	7772
24,16000	7790
24,17067	7817
24,18133	7844
24,19200	7867
24,20267	7903
24,21333	7940
24,22400	7971
24,23467	8003
24,24533	8032
24,25600	8065
24,26667	8088
24,27733	8113
24,28800	8133
24,29867	8138
24,30933	8143
24,32000	8135
24,33067	8140
24,34133	8132
24,35200	8123
24,36267	8125
24,37333	8119
24,38400	8116
24,39467	8111
24,40533	8120
24,41600	8112
24,42667	8115
24,43733	8114
24,44800	8107
24,45867	8109
24,46933	8109
24,48000	8108
24,49067	8097
24,50133	8088
24,51200	8085
24,52267	8069
24,53333	8053
24,54400	8040
24,55467	8031
24,56533	8027
24,57600	8016
24,58667	8009
24,59733	8004
24,60800	8005
24,61867	8007
24,62933	8010
24,64000	8009
24,65067	8011
24,66133	8019
24,67200	8023
24,68267	8035
24,69333	8048
24,70400	8054
24,71467	8070
24,72533	8072
24,73600	8085
24,74667	8098
24,75733	8116
24,76800	8128
24,77867	8134
24,78933	8146
24,80000	8151
24,81067	8162
24,82133	8166
24,83200	8173
24,84267	8185
24,85333	8194
24,86400	8192
24,87467	8195
24,88533	8204
24,89600	8200
24,90667	8200
24,91733	8211
24,92800	8221
24,93867	8227
24,94933	8240
24,96000	8251
24,97067	8262
24,98133	8267
24,99200	8282
25,00267	8293
25,01333	8309
25,02400	8322
25,03467	8338
25,04533	8351
25,05600	8362
25,06667	8385
25,07733	8396
25,08800	8414
25,09867	8432
25,10933	8452
25,12000	8479
25,13067	8512
25,14133	8559
25,15200	8608
25,16267	8672
25,17333	8754
25,18400	8839
25,19467	8944
25,20533	9065
25,21600	9201
25,22667	9346
25,23733	9497
25,24800	9640
25,25867	9759
25,26933	9850
25,28000	9930
25,29067	9985
25,30133	9988
25,31200	9949
25,32267	9891
25,33333	9812
25,34400	9706
25,35467	9593
25,36533	9467
25,37600	9343
25,38667	9233
25,39733	9119
25,40800	9023
25,41867	8947
25,42933	8879
25,44000	8820
25,45067	8777
25,46133	8736
25,47200	8710
25,48267	8687
25,49333	8673
25,50400	8657
25,51467	8650
25,52533	8650
25,53600	8657
25,54667	8648
25,55733	8664
25,56800	8666
25,57867	8666
25,58933	8681
25,60000	8700
25,61067	8705
25,62133	8722
25,63200	8732
25,64267	8751
25,65333	8767
25,66400	8780
25,67467	8795
25,68533	8800
25,69600	8808
25,70667	8817
25,71733	8827
25,72800	8829
25,73867	8835
25,74933	8841
25,76000	8840
25,77067	8844
25,78133	8851
25,79200	8855
25,80267	8866
25,81333	8863
25,82400	8872
25,83467	8878
25,84533	8894
25,85600	8910
25,86667	8910
25,87733	8927
25,88800	8948
25,89867	8952
25,90933	8973
25,92000	8982
25,93067	8998
25,94133	9008
25,95200	9023
25,96267	9030
25,97333	9045
25,98400	9058
25,99467	9084
26,00533	9104
26,01600	9129
26,02667	9163
26,03733	9184
26,04800	9215
26,05867	9255
26,06933	9301
26,08000	9349
26,09067	9398
26,10133	9445
26,11200	9496
26,12267	9546
26,13333	9587
26,14400	9615
26,15467	9647
26,16533	9667
26,17600	9680
26,18667	9682
26,19733	9686
26,20800	9680
26,21867	9657
26,22933	9649
26,24000	9674
26,25067	9653
26,26133	9644
26,27200	9671
26,28267	9695
26,29333	9711
26,30400	9748
26,31467	9785
26,32533	9847
26,33600	9905
26,34667	9967
26,35733	10032
26,36800	10102
26,37867	10171
26,38933	10218
26,40000	10275
26,41067	10322
26,42133	10353
26,43200	10374
26,44267	10393
26,45333	10408
26,46400	10425
26,47467	10430
26,48533	10446
26,49600	10456
26,50667	10481
26,51733	10499
26,52800	10534
26,53867	10575
26,54933	10620
26,56000	10682
26,57067	10739
26,58133	10808
26,59200	10888
26,60267	10979
26,61333	11072
26,62400	11178
26,63467	11305
26,64533	11448
26,65600	11607
26,66667	11782
26,67733	11990
26,68800	12222
26,69867	12518
26,70933	12926
26,72000	13474
26,73067	14259
26,74133	15431
26,75200	17229
26,76267	20006
26,77333	24285
26,78400	30778
26,79467	40458
26,80533	54440
26,81600	74195
26,82667	100941
26,83733	136030
26,84800	179934
26,85867	232934
26,86933	293559
26,88000	359706
26,89067	427583
26,90133	493248
26,91200	551767
26,92267	598991
26,93333	631470
26,94400	647296
26,95467	645969
26,96533	628473
26,97600	596804
26,98667	554048
26,99733	503308
27,00800	448340
27,01867	392064
27,02933	337389
27,04000	285993
27,05067	239456
27,06133	198361
27,07200	163144
27,08267	133420
27,09333	108834
27,10400	88765
27,11467	72599
27,12533	59669
27,13600	49367
27,14667	41185
27,15733	34705
27,16800	29578
27,17867	25535
27,18933	22349
27,20000	19831
27,21067	17869
27,22133	16327
27,23200	15131
27,24267	14201
27,25333	13492
27,26400	12939
27,27467	12521
27,28533	12201
27,29600	11954
27,30667	11767
27,31733	11621
27,32800	11499
27,33867	11402
27,34933	11327
27,36000	11261
27,37067	11205
27,38133	11157
27,39200	11123
27,40267	11080
27,41333	11038
27,42400	11000
27,43467	10965
27,44533	10932
27,45600	10900
27,46667	10865
27,47733	10828
27,48800	10797
27,49867	10785
27,50933	10764
27,52000	10745
27,53067	10734
27,54133	10719
27,55200	10702
27,56267	10680
27,57333	10664
27,58400	10651
27,59467	10649
27,60533	10638
27,61600	10629
27,62667	10624
27,63733	10610
27,64800	10599
27,65867	10586
27,66933	10582
27,68000	10584
27,69067	10577
27,70133	10584
27,71200	10584
27,72267	10582
27,73333	10575
27,74400	10571
27,75467	10573
27,76533	10569
27,77600	10580
27,78667	10575
27,79733	10579
27,80800	10575
27,81867	10580
27,82933	10592
27,84000	10598
27,85067	10606
27,86133	10614
27,87200	10624
27,88267	10624
27,89333	10627
27,90400	10635
27,91467	10630
27,92533	10631
27,93600	10630
27,94667	10626
27,95733	10629
27,96800	10633
27,97867	10628
27,98933	10619
28,00000	10614
28,01067	10619
28,02133	10620
28,03200	10618
28,04267	10624
28,05333	10627
28,06400	10629
28,07467	10633
28,08533	10639
28,09600	10642
28,10667	10651
28,11733	10662
28,12800	10680
28,13867	10692
28,14933	10707
28,16000	10734
28,17067	10760
28,18133	10780
28,19200	10811
28,20267	10833
28,21333	10846
28,22400	10866
28,23467	10881
28,24533	10893
28,25600	10901
28,26667	10907
28,27733	10910
28,28800	10920
28,29867	10927
28,30933	10925
28,32000	10936
28,33067	10937
28,34133	10933
28,35200	10936
28,36267	10945
28,37333	10954
28,38400	10966
28,39467	10976
28,40533	10997
28,41600	11021
28,42667	11042
28,43733	11062
28,44800	11089
28,45867	11121
28,46933	11151
28,48000	11186
28,49067	11215
28,50133	11237
28,51200	11263
28,52267	11271
28,53333	11280
28,54400	11291
28,55467	11286
28,56533	11290
28,57600	11289
28,58667	11281
28,59733	11273
28,60800	11259
28,61867	11254
28,62933	11256
28,64000	11245
28,65067	11248
28,66133	11251
28,67200	11237
28,68267	11237
28,69333	11242
28,70400	11251
28,71467	11256
28,72533	11257
28,73600	11258
28,74667	11260
28,75733	11251
28,76800	11253
28,77867	11248
28,78933	11250
28,80000	11248
28,81067	11253
28,82133	11255
28,83200	11264
28,84267	11267
28,85333	11267
28,86400	11271
28,87467	11271
28,88533	11283
28,89600	11295
28,90667	11297
28,91733	11301
28,92800	11307
28,93867	11313
28,94933	11318
28,96000	11320
28,97067	11322
28,98133	11339
28,99200	11350
29,00267	11355
29,01333	11357
29,02400	11369
29,03467	11378
29,04533	11385
29,05600	11391
29,06667	11397
29,07733	11406
29,08800	11417
29,09867	11426
29,10933	11425
29,12000	11437
29,13067	11446
29,14133	11452
29,15200	11445
29,16267	11455
29,17333	11460
29,18400	11479
29,19467	11484
29,20533	11488
29,21600	11496
29,22667	11507
29,23733	11507
29,24800	11524
29,25867	11533
29,26933	11536
29,28000	11553
29,29067	11561
29,30133	11573
29,31200	11588
29,32267	11591
29,33333	11603
29,34400	11612
29,35467	11625
29,36533	11646
29,37600	11664
29,38667	11669
29,39733	11680
29,40800	11694
29,41867	11715
29,42933	11730
29,44000	11750
29,45067	11777
29,46133	11796
29,47200	11817
29,48267	11838
29,49333	11865
29,50400	11877
29,51467	11896
29,52533	11920
29,53600	11947
29,54667	11979
29,55733	12000
29,56800	12026
29,57867	12043
29,58933	12062
29,60000	12090
29,61067	12114
29,62133	12153
29,63200	12185
29,64267	12207
29,65333	12238
29,66400	12272
29,67467	12301
29,68533	12332
29,69600	12369
29,70667	12398
29,71733	12424
29,72800	12473
29,73867	12519
29,74933	12554
29,76000	12598
29,77067	12642
29,78133	12704
29,79200	12766
29,80267	12834
29,81333	12901
29,82400	12978
29,83467	13068
29,84533	13159
29,85600	13274
29,86667	13400
29,87733	13525
29,88800	13679
29,89867	13854
29,90933	14073
29,92000	14349
29,93067	14685
29,94133	15183
29,95200	15901
29,96267	16988
29,97333	18633
29,98400	21142
29,99467	24960
30,00533	30671
30,01600	39020
30,02667	50865
30,03733	67375
30,04800	89430
30,05867	117949
30,06933	153160
30,08000	195272
30,09067	243176
30,10133	295166
30,11200	348160
30,12267	399336
30,13333	445072
30,14400	482104
30,15467	507709
30,16533	520273
30,17600	519343
30,18667	505640
30,19733	480682
30,20800	446972
30,21867	406834
30,22933	363119
30,24000	318230
30,25067	274644
30,26133	233609
30,27200	196317
30,28267	163277
30,29333	134998
30,30400	111183
30,31467	91475
30,32533	75330
30,33600	62343
30,34667	52031
30,35733	43806
30,36800	37285
30,37867	32121
30,38933	28075
30,40000	24889
30,41067	22383
30,42133	20398
30,43200	18873
30,44267	17693
30,45333	16789
30,46400	16090
30,47467	15573
30,48533	15182
30,49600	14897
30,50667	14686
30,51733	14530
30,52800	14416
30,53867	14322
30,54933	14252
30,56000	14188
30,57067	14129
30,58133	14076
30,59200	14023
30,60267	13972
30,61333	13926
30,62400	13893
30,63467	13851
30,64533	13819
30,65600	13781
30,66667	13761
30,67733	13748
30,68800	13741
30,69867	13742
30,70933	13761
30,72000	13796
30,73067	13853
30,74133	13946
30,75200	14070
30,76267	14245
30,77333	14484
30,78400	14790
30,79467	15191
30,80533	15693
30,81600	16309
30,82667	17044
30,83733	17875
30,84800	18798
30,85867	19771
30,86933	20758
30,88000	21711
30,89067	22551
30,90133	23232
30,91200	23711
30,92267	23955
30,93333	23944
30,94400	23682
30,95467	23192
30,96533	22521
30,97600	21730
30,98667	20872
30,99733	19997
31,00800	19162
31,01867	18408
31,02933	17782
31,04000	17296
31,05067	16986
31,06133	16834
31,07200	16848
31,08267	17030
31,09333	17340
31,10400	17753
31,11467	18235
31,12533	18750
31,13600	19251
31,14667	19680
31,15733	20005
31,16800	20197
31,17867	20245
31,18933	20120
31,20000	19847
31,21067	19441
31,22133	18934
31,23200	18363
31,24267	17759
31,25333	17161
31,26400	16576
31,27467	16050
31,28533	15579
31,29600	15181
31,30667	14833
31,31733	14555
31,32800	14329
31,33867	14152
31,34933	14022
31,36000	13923
31,37067	13839
31,38133	13780
31,39200	13738
31,40267	13714
31,41333	13715
31,42400	13728
31,43467	13741
31,44533	13772
31,45600	13818
31,46667	13881
31,47733	13944
31,48800	14003
31,49867	14068
31,50933	14127
31,52000	14190
31,53067	14237
31,54133	14270
31,55200	14287
31,56267	14296
31,57333	14283
31,58400	14243
31,59467	14207
31,60533	14159
31,61600	14105
31,62667	14049
31,63733	14000
31,64800	13967
31,65867	13949
31,66933	13929
31,68000	13909
31,69067	13914
31,70133	13925
31,71200	13942
31,72267	13964
31,73333	13986
31,74400	14005
31,75467	14024
31,76533	14033
31,77600	14047
31,78667	14047
31,79733	14040
31,80800	14030
31,81867	14006
31,82933	13984
31,84000	13964
31,85067	13937
31,86133	13919
31,87200	13892
31,88267	13876
31,89333	13866
31,90400	13850
31,91467	13848
31,92533	13829
31,93600	13828
31,94667	13825
31,95733	13827
31,96800	13822
31,97867	13826
31,98933	13826
32,00000	13826
32,01067	13835
32,02133	13848
32,03200	13847
32,04267	13851
32,05333	13860
32,06400	13866
32,07467	13870
32,08533	13880
32,09600	13892
32,10667	13898
32,11733	13902
32,12800	13918
32,13867	13924
32,14933	13926
32,16000	13931
32,17067	13942
32,18133	13948
32,19200	13951
32,20267	13950
32,21333	13969
32,22400	13981
32,23467	13991
32,24533	13994
32,25600	13993
32,26667	14011
32,27733	14026
32,28800	14035
32,29867	14040
32,30933	14048
32,32000	14068
32,33067	14083
32,34133	14091
32,35200	14107
32,36267	14117
32,37333	14141
32,38400	14160
32,39467	14178
32,40533	14200
32,41600	14222
32,42667	14236
32,43733	14253
32,44800	14268
32,45867	14291
32,46933	14309
32,48000	14330
32,49067	14354
32,50133	14372
32,51200	14399
32,52267	14412
32,53333	14440
32,54400	14475
32,55467	14502
32,56533	14532
32,57600	14574
32,58667	14612
32,59733	14654
32,60800	14696
32,61867	14741
32,62933	14785
32,64000	14836
32,65067	14882
32,66133	14931
32,67200	14980
32,68267	15024
32,69333	15066
32,70400	15118
32,71467	15166
32,72533	15210
32,73600	15258
32,74667	15296
32,75733	15333
32,76800	15375
32,77867	15431
32,78933	15488
32,80000	15536
32,81067	15590
32,82133	15653
32,83200	15715
32,84267	15787
32,85333	15858
32,86400	15942
32,87467	16035
32,88533	16135
32,89600	16246
32,90667	16360
32,91733	16488
32,92800	16627
32,93867	16766
32,94933	16887
32,96000	17015
32,97067	17128
32,98133	17235
32,99200	17332
33,00267	17410
33,01333	17478
33,02400	17542
33,03467	17601
33,04533	17666
33,05600	17733
33,06667	17808
33,07733	17896
33,08800	17997
33,09867	18108
33,10933	18230
33,12000	18351
33,13067	18482
33,14133	18614
33,15200	18757
33,16267	18902
33,17333	19045
33,18400	19191
33,19467	19334
33,20533	19470
33,21600	19602
33,22667	19736
33,23733	19873
33,24800	20013
33,25867	20152
33,26933	20290
33,28000	20435
33,29067	20576
33,30133	20730
33,31200	20882
33,32267	21058
33,33333	21231
33,34400	21421
33,35467	21601
33,36533	21768
33,37600	21908
33,38667	22044
33,39733	22166
33,40800	22289
33,41867	22424
33,42933	22580
33,44000	22779
33,45067	22974
33,46133	23154
33,47200	23332
33,48267	23474
33,49333	23622
33,50400	23765
33,51467	23941
33,52533	24126
33,53600	24324
33,54667	24518
33,55733	24690
33,56800	24856
33,57867	25043
33,58933	25258
33,60000	25522
33,61067	25794
33,62133	26064
33,63200	26290
33,64267	26523
33,65333	26870
33,66400	27466
33,67467	28393
33,68533	29585
33,69600	30748
33,70667	31520
33,71733	31682
33,72800	31288
33,73867	30606
33,74933	29928
33,76000	29404
33,77067	29092
33,78133	28935
33,79200	28905
33,80267	28966
33,81333	29107
33,82400	29306
33,83467	29553
33,84533	29869
33,85600	30204
33,86667	30522
33,87733	30788
33,88800	30994
33,89867	31163
33,90933	31328
33,92000	31539
33,93067	31783
33,94133	32106
33,95200	32506
33,96267	32956
33,97333	33412
33,98400	33858
33,99467	34287
34,00533	34731
34,01600	35217
34,02667	35843
34,03733	36698
34,04800	37838
34,05867	39133
34,06933	40240
34,08000	40895
34,09067	41055
34,10133	40959
34,11200	40914
34,12267	41165
34,13333	41892
34,14400	43538
34,15467	47278
34,16533	55324
34,17600	69434
34,18667	90253
34,19733	118671
34,20800	158393
34,21867	212236
34,22933	282686
34,24000	374835
34,25067	490542
34,26133	606095
34,27200	675457
34,28267	665547
34,29333	582864
34,30400	462669
34,31467	342991
34,32533	243817
34,33600	170513
34,34667	119704
34,35733	86514
34,36800	65531
34,37867	52701
34,38933	45069
34,40000	40652
34,41067	38158
34,42133	36796
34,43200	36114
34,44267	35829
34,45333	35764
34,46400	35765
34,47467	35746
34,48533	35705
34,49600	35633
34,50667	35559
34,51733	35493
34,52800	35445
34,53867	35411
34,54933	35395
34,56000	35395
34,57067	35384
34,58133	35394
34,59200	35408
34,60267	35444
34,61333	35501
34,62400	35575
34,63467	35651
34,64533	35723
34,65600	35789
34,66667	35844
34,67733	35899
34,68800	35969
34,69867	36046
34,70933	36149
34,72000	36307
34,73067	36649
34,74133	37345
34,75200	38452
34,76267	39765
34,77333	40871
34,78400	41434
34,79467	41343
34,80533	40800
34,81600	40082
34,82667	39417
34,83733	38945
34,84800	38648
34,85867	38488
34,86933	38407
34,88000	38387
34,89067	38407
34,90133	38458
34,91200	38534
34,92267	38623
34,93333	38729
34,94400	38854
34,95467	39012
34,96533	39236
34,97600	39711
34,98667	40897
34,99733	43583
35,00800	48768
35,01867	57207
35,02933	69316
35,04000	84204
35,05067	99331
35,06133	110409
35,07200	114174
35,08267	110521
35,09333	102134
35,10400	92354
35,11467	83290
35,12533	75806
35,13600	70002
35,14667	65734
35,15733	62778
35,16800	60806
35,17867	59395
35,18933	58159
35,20000	56911
35,21067	55688
35,22133	54582
35,23200	53660
35,24267	52938
35,25333	52391
35,26400	51925
35,27467	51518
35,28533	51111
35,29600	50692
35,30667	50302
35,31733	49943
35,32800	49633
35,33867	49362
35,34933	49121
35,36000	48841
35,37067	48458
35,38133	47980
35,39200	47500
35,40267	47148
35,41333	47033
35,42400	47334
35,43467	48260
35,44533	49812
35,45600	51636
35,46667	53092
35,47733	53737
35,48800	53584
35,49867	52919
35,50933	52053
35,52000	51117
35,53067	50204
35,54133	49445
35,55200	49053
35,56267	49109
35,57333	49487
35,58400	49834
35,59467	49862
35,60533	49545
35,61600	49027
35,62667	48475
35,63733	47975
35,64800	47525
35,65867	47139
35,66933	46818
35,68000	46553
35,69067	46350
35,70133	46208
35,71200	46113
35,72267	46058
35,73333	46016
35,74400	46014
35,75467	46020
35,76533	46071
35,77600	46172
35,78667	46349
35,79733	46646
35,80800	47038
35,81867	47465
35,82933	47832
35,84000	48056
35,85067	48143
35,86133	48139
35,87200	48085
35,88267	47978
35,89333	47816
35,90400	47600
35,91467	47356
35,92533	47113
35,93600	46893
35,94667	46713
35,95733	46574
35,96800	46498
35,97867	46469
35,98933	46515
36,00000	46600
36,01067	46681
36,02133	46729
36,03200	46724
36,04267	46686
36,05333	46621
36,06400	46542
36,07467	46471
36,08533	46441
36,09600	46441
36,10667	46460
36,11733	46526
36,12800	46631
36,13867	46772
36,14933	46940
36,16000	47091
36,17067	47209
36,18133	47290
36,19200	47334
36,20267	47356
36,21333	47398
36,22400	47464
36,23467	47515
36,24533	47551
36,25600	47560
36,26667	47556
36,27733	47587
36,28800	47706
36,29867	47906
36,30933	48137
36,32000	48337
36,33067	48405
36,34133	48315
36,35200	48129
36,36267	47923
36,37333	47748
36,38400	47587
36,39467	47441
36,40533	47324
36,41600	47215
36,42667	47136
36,43733	47081
36,44800	47050
36,45867	47032
36,46933	47033
36,48000	47033
36,49067	47039
36,50133	47051
36,51200	47074
36,52267	47095
36,53333	47109
36,54400	47135
36,55467	47154
36,56533	47172
36,57600	47191
36,58667	47215
36,59733	47234
36,60800	47246
36,61867	47259
36,62933	47273
36,64000	47298
36,65067	47323
36,66133	47370
36,67200	47412
36,68267	47433
36,69333	47456
36,70400	47459
36,71467	47449
36,72533	47450
36,73600	47468
36,74667	47509
36,75733	47571
36,76800	47620
36,77867	47662
36,78933	47654
36,80000	47621
36,81067	47567
36,82133	47504
36,83200	47453
36,84267	47413
36,85333	47380
36,86400	47367
36,87467	47357
36,88533	47370
36,89600	47408
36,90667	47449
36,91733	47474
36,92800	47489
36,93867	47500
36,94933	47540
36,96000	47608
36,97067	47753
36,98133	47932
36,99200	48146
37,00267	48337
37,01333	48463
37,02400	48489
37,03467	48418
37,04533	48271
37,05600	48078
37,06667	47894
37,07733	47736
37,08800	47600
37,09867	47510
37,10933	47442
37,12000	47394
37,13067	47378
37,14133	47383
37,15200	47410
37,16267	47467
37,17333	47564
37,18400	47674
37,19467	47778
37,20533	47845
37,21600	47863
37,22667	47820
37,23733	47738
37,24800	47641
37,25867	47545
37,26933	47473
37,28000	47408
37,29067	47375
37,30133	47345
37,31200	47329
37,32267	47321
37,33333	47310
37,34400	47303
37,35467	47296
37,36533	47284
37,37600	47293
37,38667	47301
37,39733	47301
37,40800	47318
37,41867	47322
37,42933	47325
37,44000	47328
37,45067	47339
37,46133	47347
37,47200	47346
37,48267	47358
37,49333	47373
37,50400	47372
37,51467	47374
37,52533	47381
37,53600	47374
37,54667	47369
37,55733	47368
37,56800	47370
37,57867	47366
37,58933	47370
37,60000	47376
37,61067	47376
37,62133	47382
37,63200	47392
37,64267	47399
37,65333	47398
37,66400	47408
37,67467	47417
37,68533	47426
37,69600	47442
37,70667	47450
37,71733	47482
37,72800	47518
37,73867	47542
37,74933	47594
37,76000	47635
37,77067	47661
37,78133	47691
37,79200	47702
37,80267	47702
37,81333	47695
37,82400	47679
37,83467	47657
37,84533	47643
37,85600	47629
37,86667	47628
37,87733	47628
37,88800	47636
37,89867	47643
37,90933	47652
37,92000	47661
37,93067	47673
37,94133	47686
37,95200	47704
37,96267	47727
37,97333	47752
37,98400	47767
37,99467	47786
38,00533	47806
38,01600	47833
38,02667	47857
38,03733	47876
38,04800	47900
38,05867	47927
38,06933	47946
38,08000	47958
38,09067	47991
38,10133	48024
38,11200	48053
38,12267	48086
38,13333	48109
38,14400	48151
38,15467	48195
38,16533	48230
38,17600	48269
38,18667	48302
38,19733	48363
38,20800	48405
38,21867	48456
38,22933	48501
38,24000	48553
38,25067	48604
38,26133	48646
38,27200	48687
38,28267	48726
38,29333	48765
38,30400	48814
38,31467	48862
38,32533	48912
38,33600	48961
38,34667	49017
38,35733	49071
38,36800	49139
38,37867	49195
38,38933	49260
38,40000	49331
38,41067	49403
38,42133	49483
38,43200	49550
38,44267	49617
38,45333	49682
38,46400	49758
38,47467	49827
38,48533	49901
38,49600	49979
38,50667	50053
38,51733	50133
38,52800	50213
38,53867	50295
38,54933	50382
38,56000	50468
38,57067	50564
38,58133	50659
38,59200	50750
38,60267	50850
38,61333	50947
38,62400	51049
38,63467	51152
38,64533	51267
38,65600	51382
38,66667	51495
38,67733	51612
38,68800	51737
38,69867	51861
38,70933	52005
38,72000	52163
38,73067	52368
38,74133	52643
38,75200	53023
38,76267	53562
38,77333	54341
38,78400	55443
38,79467	56991
38,80533	59057
38,81600	61697
38,82667	64888
38,83733	68492
38,84800	72235
38,85867	75748
38,86933	78622
38,88000	80454
38,89067	81012
38,90133	80247
38,91200	78286
38,92267	75461
38,93333	72175
38,94400	68819
38,95467	65727
38,96533	63104
38,97600	61012
38,98667	59445
38,99733	58331
39,00800	57576
39,01867	57071
39,02933	56751
39,04000	56540
39,05067	56394
39,06133	56290
39,07200	56223
39,08267	56150
39,09333	56095
39,10400	56028
39,11467	55952
39,12533	55876
39,13600	55768
39,14667	55657
39,15733	55525
39,16800	55381
39,17867	55218
39,18933	55038
39,20000	54831
39,21067	54613
39,22133	54366
39,23200	54106
39,24267	53818
39,25333	53508
39,26400	53174
39,27467	52816
39,28533	52448
39,29600	52067
39,30667	51651
39,31733	51222
39,32800	50776
39,33867	50328
39,34933	49856
39,36000	49380
39,37067	48890
39,38133	48400
39,39200	47899
39,40267	47388
39,41333	46897
39,42400	46403
39,43467	45905
39,44533	45425
39,45600	44951
39,46667	44474
39,47733	44029
39,48800	43576
39,49867	43125
39,50933	42685
39,52000	42248
39,53067	41808
39,54133	41349
39,55200	40867
39,56267	40376
39,57333	39856
39,58400	39314
39,59467	38775
39,60533	38256
39,61600	37757
39,62667	37269
39,63733	36759
39,64800	36184
39,65867	35519
39,66933	34746
39,68000	33872
39,69067	32904
39,70133	31826
39,71200	30688
39,72267	29488
39,73333	28265
39,74400	27010
39,75467	25737
39,76533	24455
39,77600	23154
39,78667	21858
39,79733	20575
39,80800	19353
39,81867	18179
39,82933	17072
39,84000	16015
39,85067	15033
39,86133	14119
39,87200	13270
39,88267	12471
39,89333	11733
39,90400	11049
39,91467	10429
39,92533	9854
39,93600	9322
39,94667	8830
39,95733	8374
39,96800	7963
39,97867	7582
39,98933	7239
40,00000	6905
40,01067	6596
40,02133	6315
40,03200	6048
40,04267	5798
40,05333	5561
40,06400	5342
40,07467	5129
40,08533	4936
40,09600	4755
40,10667	4590
40,11733	4426
40,12800	4281
40,13867	4136
40,14933	4008
40,16000	3875
40,17067	3757
40,18133	3642
40,19200	3537
40,20267	3431
40,21333	3334
40,22400	3237
40,23467	3146
40,24533	3060
40,25600	2975
40,26667	2897
40,27733	2816
40,28800	2737
40,29867	2670
40,30933	2598
40,32000	2536
40,33067	2486
40,34133	2422
40,35200	2358
40,36267	2305
40,37333	2249
40,38400	2182
40,39467	2140
40,40533	2088
40,41600	2047
40,42667	2004
40,43733	1961
40,44800	1918
40,45867	1885
40,46933	1849
40,48000	1816
40,49067	1778
40,50133	1745
40,51200	1707
40,52267	1679
40,53333	1648
40,54400	1623
40,55467	1598
40,56533	1562
40,57600	1533
40,58667	1500
40,59733	1479
40,60800	1447
40,61867	1417
40,62933	1385
40,64000	1366
40,65067	1345
40,66133	1315
40,67200	1289
40,68267	1256
40,69333	1233
40,70400	1209
40,71467	1182
40,72533	1160
40,73600	1133
40,74667	1110
40,75733	1074
40,76800	1050
40,77867	1028
40,78933	1007
40,80000	984
40,81067	954
40,82133	925
40,83200	903
40,84267	884
40,85333	857
40,86400	837
40,87467	802
40,88533	783
40,89600	758
40,90667	728
40,91733	703
40,92800	682
40,93867	662
40,94933	646
40,96000	626
40,97067	605
40,98133	590
40,99200	562
41,00267	542
41,01333	530
41,02400	506
41,03467	490
41,04533	462
41,05600	450
41,06667	434
41,07733	416
41,08800	403
41,09867	392
41,10933	382
41,12000	377
41,13067	364
41,14133	342
41,15200	334
41,16267	316
41,17333	296
41,18400	281
41,19467	267
41,20533	259
41,21600	250
41,22667	245
41,23733	232
41,24800	221
41,25867	200
41,26933	189
41,28000	183
41,29067	177
41,30133	169
41,31200	151
41,32267	142
41,33333	130
41,34400	121
41,35467	117
41,36533	111
41,37600	95
41,38667	92
41,39733	81
41,40800	82
41,41867	76
41,42933	73
41,44000	70
41,45067	67
41,46133	56
41,47200	48
41,48267	45
41,49333	49
41,50400	48
41,51467	50
41,52533	47
41,53600	40
41,54667	41
41,55733	40
41,56800	44
41,57867	48
41,58933	44
41,60000	46
41,61067	56
41,62133	57
41,63200	64
41,64267	62
41,65333	62
41,66400	69
41,67467	75
41,68533	79
41,69600	77
41,70667	80
41,71733	78
41,72800	84
41,73867	93
41,74933	92
41,76000	96
41,77067	105
41,78133	104
41,79200	112
41,80267	116
41,81333	120
41,82400	123
41,83467	126
41,84533	133
41,85600	136
41,86667	133
41,87733	144
41,88800	149
41,89867	151
41,90933	161
41,92000	168
41,93067	170
41,94133	167
41,95200	180
41,96267	188
41,97333	197
41,98400	192
41,99467	200
42,00533	196
42,01600	211
42,02667	214
42,03733	221
42,04800	220
42,05867	215
42,06933	223
42,08000	224
42,09067	234
42,10133	227
42,11200	228
42,12267	231
42,13333	229
42,14400	235
42,15467	239
42,16533	239
42,17600	242
42,18667	241
42,19733	241
42,20800	240
42,21867	252
42,22933	252
42,24000	259
42,25067	252
42,26133	253
42,27200	255
42,28267	257
42,29333	250
42,30400	252
42,31467	253
42,32533	256
42,33600	251
42,34667	246
42,35733	254
42,36800	260
42,37867	261
42,38933	255
42,40000	257
42,41067	254
42,42133	255
42,43200	251
42,44267	249
42,45333	253
42,46400	261
42,47467	251
42,48533	256
42,49600	253
42,50667	249
42,51733	246
42,52800	248
42,53867	249
42,54933	240
42,56000	242
42,57067	248
42,58133	247
42,59200	245
42,60267	246
42,61333	244
42,62400	244
42,63467	245
42,64533	244
42,65600	250
42,66667	251
42,67733	250
42,68800	243
42,69867	246
42,70933	250
42,72000	250
42,73067	243
42,74133	236
42,75200	243
42,76267	241
42,77333	238
42,78400	235
42,79467	228
42,80533	231
42,81600	237
42,82667	237
42,83733	233
42,84800	232
42,85867	233
42,86933	224
42,88000	229
42,89067	230
42,90133	235
42,91200	231
42,92267	233
42,93333	241
42,94400	241
42,95467	239
42,96533	233
42,97600	229
42,98667	232
42,99733	235
43,00800	233
43,01867	232
43,02933	231
43,04000	234
43,05067	232
43,06133	228
43,07200	222
43,08267	227
43,09333	236
43,10400	229
43,11467	226
43,12533	227
43,13600	217
43,14667	216
43,15733	220
43,16800	223
43,17867	223
43,18933	226
43,20000	218
43,21067	225
43,22133	221
43,23200	222
43,24267	227
43,25333	226
43,26400	226
43,27467	222
43,28533	226
43,29600	214
43,30667	214
43,31733	214
43,32800	221
43,33867	223
43,34933	227
43,36000	220
43,37067	211
43,38133	215
43,39200	216
43,40267	215
43,41333	216
43,42400	214
43,43467	213
43,44533	219
43,45600	217
43,46667	217
43,47733	221
43,48800	219
43,49867	219
43,50933	213
43,52000	216
43,53067	214
43,54133	213
43,55200	219
43,56267	222
43,57333	220
43,58400	214
43,59467	217
43,60533	214
43,61600	217
43,62667	222
43,63733	213
43,64800	209
43,65867	215
43,66933	214
43,68000	205
43,69067	202
43,70133	193
43,71200	204
43,72267	204
43,73333	208
43,74400	200
43,75467	209
43,76533	211
43,77600	214
43,78667	212
43,79733	204
43,80800	202
43,81867	199
43,82933	200
43,84000	203
43,85067	200
43,86133	200
43,87200	203
43,88267	201
43,89333	199
43,90400	202
43,91467	192
43,92533	186
43,93600	199
43,94667	192
43,95733	196
43,96800	201
43,97867	199
43,98933	198
44,00000	188
44,01067	192
44,02133	196
44,03200	193
44,04267	194
44,05333	195
44,06400	183
44,07467	188
44,08533	190
44,09600	180
44,10667	185
44,11733	182
44,12800	189
44,13867	184
44,14933	189
44,16000	191
44,17067	187
44,18133	186
44,19200	188
44,20267	186
44,21333	195
44,22400	188
44,23467	177
44,24533	181
44,25600	187
44,26667	185
44,27733	183
44,28800	183
44,29867	184
44,30933	176
44,32000	184
44,33067	181
44,34133	181
44,35200	175
44,36267	178
44,37333	181
44,38400	179
44,39467	178
44,40533	178
44,41600	174
44,42667	174
44,43733	177
44,44800	177
44,45867	184
44,46933	177
44,48000	173
44,49067	174
44,50133	175
44,51200	170
44,52267	176
44,53333	172
44,54400	171
44,55467	174
44,56533	173
44,57600	176
44,58667	171
44,59733	172
44,60800	168
44,61867	168
44,62933	175
44,64000	172
44,65067	176
44,66133	177
44,67200	177
44,68267	179
44,69333	167
44,70400	170
44,71467	172
44,72533	169
44,73600	173
44,74667	173
44,75733	179
44,76800	175
44,77867	175
44,78933	182
44,80000	178
44,81067	168
44,82133	172
44,83200	173
44,84267	176
44,85333	175
44,86400	175
44,87467	169
44,88533	165
44,89600	168
44,90667	169
44,91733	169
44,92800	164
44,93867	168
44,94933	164
44,96000	174
44,97067	169
44,98133	162
44,99200	168
45,00267	166
45,01333	162
45,02400	156
45,03467	162
45,04533	153
45,05600	151
45,06667	159
45,07733	164
45,08800	169
45,09867	162
45,10933	156
45,12000	157
45,13067	156
45,14133	157
45,15200	161
45,16267	162
45,17333	155
45,18400	157
45,19467	158
45,20533	157
45,21600	166
45,22667	160
45,23733	162
45,24800	160
45,25867	158
45,26933	159
45,28000	155
45,29067	161
45,30133	155
45,31200	156
45,32267	158
45,33333	161
45,34400	161
45,35467	163
45,36533	161
45,37600	159
45,38667	168
45,39733	166
45,40800	163
45,41867	163
45,42933	156
45,44000	157
45,45067	157
45,46133	152
45,47200	150
45,48267	156
45,49333	154
45,50400	160
45,51467	156
45,52533	150
45,53600	146
45,54667	158
45,55733	154
45,56800	151
45,57867	151
45,58933	146
45,60000	148
45,61067	153
45,62133	152
45,63200	150
45,64267	157
45,65333	150
45,66400	148
45,67467	140
45,68533	142
45,69600	148
45,70667	147
45,71733	144
45,72800	152
45,73867	149
45,74933	147
45,76000	151
45,77067	148
45,78133	148
45,79200	143
45,80267	145
45,81333	143
45,82400	146
45,83467	142
45,84533	151
45,85600	142
45,86667	142
45,87733	137
45,88800	139
45,89867	145
45,90933	145
45,92000	147
45,93067	147
45,94133	147
45,95200	154
45,96267	146
45,97333	149
45,98400	141
45,99467	142
46,00533	153
46,01600	155
46,02667	143
46,03733	140
46,04800	144
46,05867	137
46,06933	139
46,08000	143
46,09067	140
46,10133	143
46,11200	133
46,12267	136
46,13333	143
46,14400	132
46,15467	138
46,16533	142
46,17600	138
46,18667	139
46,19733	134
46,20800	127
46,21867	128
46,22933	135
46,24000	139
46,25067	140
46,26133	135
46,27200	134
46,28267	129
46,29333	126
46,30400	124
46,31467	124
46,32533	135
46,33600	129
46,34667	133
46,35733	130
46,36800	132
46,37867	123
46,38933	126
46,40000	129
46,41067	120
46,42133	122
46,43200	117
46,44267	122
46,45333	121
46,46400	127
46,47467	130
46,48533	129
46,49600	118
46,50667	120
46,51733	122
46,52800	125
46,53867	130
46,54933	132
46,56000	125
46,57067	123
46,58133	125
46,59200	123
46,60267	116
46,61333	117
46,62400	122
46,63467	114
46,64533	122
46,65600	120
46,66667	122
46,67733	119
46,68800	122
46,69867	120
46,70933	115
46,72000	122
46,73067	120
46,74133	120
46,75200	124
46,76267	118
46,77333	116
46,78400	112
46,79467	116
46,80533	114
46,81600	112
46,82667	118
46,83733	115
46,84800	113
46,85867	114
46,86933	121
46,88000	120
46,89067	117
46,90133	113
46,91200	112
46,92267	113
46,93333	113
46,94400	112
46,95467	115
46,96533	108
46,97600	111
46,98667	113
46,99733	112
47,00800	115
47,01867	117
47,02933	114
47,04000	110
47,05067	114
47,06133	109
47,07200	104
47,08267	110
47,09333	109
47,10400	98
47,11467	101
47,12533	102
47,13600	106
47,14667	101
47,15733	103
47,16800	105
47,17867	102
47,18933	107
47,20000	102
47,21067	114
47,22133	112
47,23200	108
47,24267	104
47,25333	111
47,26400	105
47,27467	99
47,28533	100
47,29600	100
47,30667	105
47,31733	103
47,32800	108
47,33867	108
47,34933	103
47,36000	97
47,37067	102
47,38133	98
47,39200	101
47,40267	96
47,41333	96
47,42400	92
47,43467	100
47,44533	97
47,45600	98
47,46667	106
47,47733	94
47,48800	90
47,49867	90
47,50933	96
47,52000	100
47,53067	87
47,54133	92
47,55200	96
47,56267	96
47,57333	96
47,58400	92
47,59467	101
47,60533	92
47,61600	90
47,62667	91
47,63733	88
47,64800	86
47,65867	90
47,66933	85
47,68000	85
47,69067	83
47,70133	88
47,71200	87
47,72267	88
47,73333	88
47,74400	98
47,75467	90
47,76533	79
47,77600	82
47,78667	90
47,79733	88
47,80800	93
47,81867	91
47,82933	89
47,84000	83
47,85067	90
47,86133	91
47,87200	91
47,88267	92
47,89333	81
47,90400	82
47,91467	88
47,92533	91
47,93600	94
47,94667	87
47,95733	83
47,96800	93
47,97867	90
47,98933	84
48,00000	85
48,01067	89
48,02133	88
48,03200	89
48,04267	85
48,05333	93
48,06400	97
48,07467	97
48,08533	91
48,09600	89
48,10667	83
48,11733	82
48,12800	87
48,13867	93
48,14933	88
48,16000	88
48,17067	89
48,18133	89
48,19200	90
48,20267	87
48,21333	88
48,22400	78
48,23467	85
48,24533	83
48,25600	83
48,26667	85
48,27733	81
48,28800	82
48,29867	76
48,30933	79
48,32000	79
48,33067	79
48,34133	78
48,35200	74
48,36267	80
48,37333	74
48,38400	79
48,39467	79
48,40533	81
48,41600	72
48,42667	76
48,43733	83
48,44800	73
48,45867	67
48,46933	72
48,48000	71
48,49067	75
48,50133	73
48,51200	74
48,52267	76
48,53333	69
48,54400	66
48,55467	67
48,56533	66
48,57600	61
48,58667	64
48,59733	63
48,60800	65
48,61867	69
48,62933	70
48,64000	67
48,65067	66
48,66133	69
48,67200	67
48,68267	66
48,69333	65
48,70400	67
48,71467	65
48,72533	66
48,73600	59
48,74667	59
48,75733	67
48,76800	63
48,77867	67
48,78933	65
48,80000	68
48,81067	69
48,82133	67
48,83200	66
48,84267	64
48,85333	64
48,86400	64
48,87467	65
48,88533	69
48,89600	69
48,90667	68
48,91733	68
48,92800	63
48,93867	60
48,94933	66
48,96000	67
48,97067	57
48,98133	54
48,99200	54
49,00267	59
49,01333	61
49,02400	67
49,03467	68
49,04533	70
49,05600	60
49,06667	70
49,07733	67
49,08800	62
49,09867	61
49,10933	60
49,12000	56
49,13067	61
49,14133	62
49,15200	57
49,16267	64
49,17333	60
49,18400	68
49,19467	64
49,20533	62
49,21600	63
49,22667	49
49,23733	57
49,24800	60
49,25867	62
49,26933	60
49,28000	68
49,29067	59
49,30133	56
49,31200	61
49,32267	55
49,33333	60
49,34400	62
49,35467	68
49,36533	68
49,37600	66
49,38667	56
49,39733	53
49,40800	49
49,41867	51
49,42933	51
49,44000	51
49,45067	55
49,46133	56
49,47200	61
49,48267	58
49,49333	60
49,50400	62
49,51467	59
49,52533	55
49,53600	54
49,54667	49
49,55733	67
49,56800	59
49,57867	69
49,58933	61
49,60000	63
49,61067	57
49,62133	58
49,63200	52
49,64267	55
49,65333	60
49,66400	60
49,67467	66
49,68533	61
49,69600	68
49,70667	64
49,71733	64
49,72800	55
49,73867	55
49,74933	59
49,76000	60
49,77067	62
49,78133	56
49,79200	59
49,80267	64
49,81333	63
49,82400	57
49,83467	61
49,84533	47
49,85600	48
49,86667	53
49,87733	55
49,88800	55
49,89867	56
49,90933	52
49,92000	58
49,93067	61
49,94133	48
49,95200	54
49,96267	52
49,97333	46
49,98400	50
49,99467	52
50,00533	54


