[Header]
Application Name	LabSolutions
Version	5.73
Data File Name	C:\Users\Public\DADOS\Ricardo borges\RMBorges\26.02.25\QUERCETIN.lcd
Output Date	26/02/2025
Output Time	16:58:11

[File Information]
Type	Data File
Generated	26/02/2025 16:07:43
Generated by	System Administrator
Modified	26/02/2025 16:58:11
Modified by	System Administrator

[Sample Information]
Operator Name	System Administrator
Acquired	26/02/2025 16:08:08
Sample Type	0:Unknown
Level	0
Sample Name	QUERCETIN
Sample ID	QUERCETIN
ISTD Amount1	1
ISTD Amount2	1
ISTD Amount3	1
ISTD Amount4	1
ISTD Amount5	1
ISTD Amount6	1
ISTD Amount7	1
ISTD Amount8	1
ISTD Amount9	1
ISTD Amount10	1
ISTD Amount11	1
ISTD Amount12	1
ISTD Amount13	1
ISTD Amount14	1
ISTD Amount15	1
ISTD Amount16	1
ISTD Amount17	1
ISTD Amount18	1
ISTD Amount19	1
ISTD Amount20	1
ISTD Amount21	1
ISTD Amount22	1
ISTD Amount23	1
ISTD Amount24	1
ISTD Amount25	1
ISTD Amount26	1
ISTD Amount27	1
ISTD Amount28	1
ISTD Amount29	1
ISTD Amount30	1
ISTD Amount31	1
ISTD Amount32	1
Sample Amount	1
Dilution Factor	1
Vial#	5
Injection Volume	10

[Original Files]
Data File	C:\Users\Public\DADOS\Ricardo borges\RMBorges\26.02.25\QUERCETIN.lcd
Method File	C:\Users\Public\MÉTODOS\MÉTODOS HPLC AUTOMÁTICO\RICARDO BORGES\RMBorges\sciffee\experimental 1 - pool.lcm
Batch File	C:\Users\Public\DADOS\Ricardo borges\RMBorges\26.02.25\BATCH_RM_MIX POOL_26.02.2025.lcb
Report Format File	C:\LabSolutions\System\Default.lsr

[File Description]


[Configuration]
Instrument Name	HPLC analítico (automático)
Instrument #	1
Line #	1
# of Detectors	1
Detector ID	PDA
Detector Name	PDA
# of Channels	1

[Peak Table(PDA-Ch1)]
# of Peaks	27
Peak#	R.Time	I.Time	F.Time	Area	Height	A/H	Conc.	Mark	ID#	Name	k'	Plate #	Plate Ht.	Tailing	Resolution	Sep.Factor	Area Ratio	Height Ratio	Conc. %	Norm Conc.
1	1,676	1,504	1,835	103935	16410	6,334	0,000	   			0,000	1520	98,656	0,996	0,000	0,000	0	0	0,000	0,000
2	6,044	5,771	6,304	7997	604	13,235	0,000	   			2,605	4608	32,553	1,031	16,540	0,000	0	0	0,000	0,000
3	19,245	19,008	19,435	2787	263	10,614	0,000	   			10,480	68998	2,174	0,987	40,668	4,023	0	0	0,000	0,000
4	20,317	20,085	20,491	3553	338	10,519	0,000	   			11,120	73208	2,049	0,957	3,614	1,061	0	0	0,000	0,000
5	21,037	20,800	21,259	6430	593	10,842	0,000	   			11,549	81667	1,837	1,049	2,418	1,039	0	0	0,000	0,000
6	21,680	21,397	21,984	30584	2653	11,529	0,000	   			11,932	76678	1,956	1,119	2,117	1,033	0	0	0,000	0,000
7	23,893	23,659	24,107	2232	165	13,544	0,000	   			13,253	70637	2,124	0,961	6,581	1,111	0	0	0,000	0,000
8	24,341	24,107	24,661	11758	689	17,064	0,000	   			13,520	41555	3,610	1,327	1,069	1,020	0	0	0,000	0,000
9	24,843	24,661	24,992	1079	108	9,954	0,000	 V 			13,819	129175	1,161	0,000	1,332	1,022	0	0	0,000	0,000
10	25,184	24,992	25,429	1500	117	12,789	0,000	   			14,023	101946	1,471	0,993	1,153	1,015	0	0	0,000	0,000
11	26,206	25,803	26,293	11292	962	11,732	0,000	   			14,633	66940	2,241	0,000	2,836	1,043	0	0	0,000	0,000
12	26,474	26,293	26,539	16840	1442	11,679	0,000	 V 			14,793	15046	9,969	0,000	0,423	1,011	0	0	0,000	0,000
13	26,965	26,539	28,075	13118402	1273676	10,300	0,000	SV 			15,085	147174	1,019	1,191	0,857	1,020	0	0	0,000	0,000
14	28,617	28,384	28,789	1727	141	12,202	0,000	   			16,071	121904	1,230	0,901	5,427	1,065	0	0	0,000	0,000
15	30,205	29,813	30,528	219623	21067	10,425	0,000	   			17,018	182416	0,822	1,083	5,200	1,059	0	0	0,000	0,000
16	30,948	30,528	31,307	192039	18091	10,615	0,000	 V 			17,462	186700	0,803	1,088	2,611	1,026	0	0	0,000	0,000
17	31,584	31,307	31,787	6904	614	11,237	0,000	 V 			17,841	179826	0,834	0,000	2,174	1,022	0	0	0,000	0,000
18	35,071	32,875	35,413	1395979	115643	12,071	0,000	   			19,921	623459	0,241	0,000	14,666	1,117	0	0	0,000	0,000
19	35,486	35,413	35,563	160460	21925	7,319	0,000	 V 			20,168	148335	1,011	0,000	1,519	1,012	0	0	0,000	0,000
20	35,595	35,563	35,733	130226	16226	8,026	0,000	 V 			20,233	40040	3,746	0,000	0,201	1,003	0	0	0,000	0,000
21	35,851	35,733	35,979	153683	12011	12,795	0,000	 V 			20,386	34603	4,335	0,000	0,346	1,008	0	0	0,000	0,000
22	36,033	35,979	36,096	58377	8487	6,878	0,000	 V 			20,495	0	0,000	0,000	0,000	1,005	0	0	0,000	0,000
23	36,334	36,096	36,480	176369	8825	19,985	0,000	 V 			20,674	7838	19,138	0,000	0,000	1,009	0	0	0,000	0,000
24	36,788	36,480	36,907	117822	4441	26,533	0,000	 V 			20,945	0	0,000	0,000	0,000	1,013	0	0	0,000	0,000
25	37,035	36,907	37,141	38746	3477	11,145	0,000	 V 			21,092	83047	1,806	0,000	0,000	1,007	0	0	0,000	0,000
26	37,226	37,141	37,355	12572	1515	8,299	0,000	 V 			21,206	6771	22,154	0,000	0,164	1,005	0	0	0,000	0,000
27	38,912	38,656	39,968	1081638	37150	29,115	0,000	   			22,212	330898	0,453	2,901	1,622	1,047	0	0	0,000	0,000

[Compound Results(PDA)]
# of IDs	0

[PDA Multi Chromatogram(Ch1)]
# of Points	      4690
Interval(msec)	640
Start Time(min)	0
End Time(min)	50,016
Intensity Units	mAU
Intensity Multiplier	1
Type	MultiChrom
Wavelength(nm)	254
Bandwidth(nm)	4
R.Time (min)	Intensity
0,00000	0
0,01067	0
0,02133	0
0,03200	0
0,04267	0
0,05333	0
0,06400	0
0,07467	0
0,08533	0
0,09600	0
0,10667	0
0,11733	-7
0,12800	-2
0,13867	-3
0,14933	-6
0,16000	-1
0,17067	0
0,18133	1
0,19200	-1
0,20267	-3
0,21333	-4
0,22400	4
0,23467	2
0,24533	-6
0,25600	-8
0,26667	-10
0,27733	1
0,28800	2
0,29867	2
0,30933	1
0,32000	4
0,33067	8
0,34133	1
0,35200	-8
0,36267	-2
0,37333	-4
0,38400	-7
0,39467	-4
0,40533	-6
0,41600	-6
0,42667	0
0,43733	-4
0,44800	-4
0,45867	-7
0,46933	-5
0,48000	-5
0,49067	-3
0,50133	-2
0,51200	-3
0,52267	-5
0,53333	-6
0,54400	-4
0,55467	-6
0,56533	1
0,57600	-9
0,58667	-1
0,59733	0
0,60800	-1
0,61867	-3
0,62933	-3
0,64000	-2
0,65067	7
0,66133	5
0,67200	3
0,68267	2
0,69333	6
0,70400	10
0,71467	10
0,72533	9
0,73600	9
0,74667	-2
0,75733	4
0,76800	9
0,77867	7
0,78933	3
0,80000	3
0,81067	5
0,82133	8
0,83200	7
0,84267	7
0,85333	1
0,86400	5
0,87467	3
0,88533	8
0,89600	8
0,90667	6
0,91733	15
0,92800	11
0,93867	5
0,94933	7
0,96000	6
0,97067	1
0,98133	12
0,99200	9
1,00267	5
1,01333	6
1,02400	-0
1,03467	5
1,04533	3
1,05600	6
1,06667	4
1,07733	5
1,08800	2
1,09867	-2
1,10933	-3
1,12000	4
1,13067	2
1,14133	4
1,15200	4
1,16267	2
1,17333	6
1,18400	-4
1,19467	-0
1,20533	4
1,21600	4
1,22667	2
1,23733	5
1,24800	8
1,25867	-1
1,26933	1
1,28000	5
1,29067	-1
1,30133	0
1,31200	-0
1,32267	-6
1,33333	1
1,34400	2
1,35467	3
1,36533	10
1,37600	2
1,38667	6
1,39733	5
1,40800	3
1,41867	-1
1,42933	7
1,44000	6
1,45067	5
1,46133	-3
1,47200	3
1,48267	0
1,49333	2
1,50400	-2
1,51467	5
1,52533	9
1,53600	20
1,54667	47
1,55733	66
1,56800	99
1,57867	125
1,58933	143
1,60000	135
1,61067	123
1,62133	103
1,63200	313
1,64267	2939
1,65333	8393
1,66400	11758
1,67467	12478
1,68533	12105
1,69600	10932
1,70667	9095
1,71733	6933
1,72800	4751
1,73867	2638
1,74933	706
1,76000	-1039
1,77067	-2570
1,78133	-3807
1,79200	-4728
1,80267	-5472
1,81333	-6249
1,82400	-7018
1,83467	-7540
1,84533	-7653
1,85600	-7321
1,86667	-6604
1,87733	-5615
1,88800	-4507
1,89867	-3422
1,90933	-2461
1,92000	-1700
1,93067	-1148
1,94133	-750
1,95200	-481
1,96267	-304
1,97333	-200
1,98400	-136
1,99467	-93
2,00533	-64
2,01600	-49
2,02667	-36
2,03733	-30
2,04800	-27
2,05867	-19
2,06933	-22
2,08000	-16
2,09067	-12
2,10133	-9
2,11200	-10
2,12267	-10
2,13333	-5
2,14400	-2
2,15467	-5
2,16533	-5
2,17600	-3
2,18667	-9
2,19733	-15
2,20800	-1
2,21867	-7
2,22933	-11
2,24000	-5
2,25067	-6
2,26133	-1
2,27200	-1
2,28267	-1
2,29333	5
2,30400	5
2,31467	2
2,32533	-2
2,33600	2
2,34667	-1
2,35733	-1
2,36800	1
2,37867	-0
2,38933	1
2,40000	2
2,41067	8
2,42133	3
2,43200	7
2,44267	5
2,45333	7
2,46400	5
2,47467	1
2,48533	9
2,49600	7
2,50667	9
2,51733	7
2,52800	4
2,53867	6
2,54933	5
2,56000	2
2,57067	-4
2,58133	2
2,59200	6
2,60267	0
2,61333	-4
2,62400	-2
2,63467	-11
2,64533	-23
2,65600	-60
2,66667	-120
2,67733	-195
2,68800	-279
2,69867	-373
2,70933	-446
2,72000	-504
2,73067	-527
2,74133	-526
2,75200	-506
2,76267	-459
2,77333	-406
2,78400	-348
2,79467	-279
2,80533	-219
2,81600	-171
2,82667	-119
2,83733	-89
2,84800	-58
2,85867	-34
2,86933	-30
2,88000	-14
2,89067	2
2,90133	11
2,91200	13
2,92267	11
2,93333	9
2,94400	18
2,95467	16
2,96533	19
2,97600	21
2,98667	28
2,99733	17
3,00800	12
3,01867	24
3,02933	30
3,04000	24
3,05067	27
3,06133	26
3,07200	29
3,08267	28
3,09333	30
3,10400	23
3,11467	28
3,12533	27
3,13600	32
3,14667	25
3,15733	29
3,16800	22
3,17867	23
3,18933	19
3,20000	15
3,21067	15
3,22133	14
3,23200	11
3,24267	17
3,25333	16
3,26400	20
3,27467	14
3,28533	12
3,29600	17
3,30667	15
3,31733	17
3,32800	12
3,33867	12
3,34933	11
3,36000	12
3,37067	14
3,38133	14
3,39200	20
3,40267	21
3,41333	20
3,42400	20
3,43467	15
3,44533	21
3,45600	24
3,46667	46
3,47733	68
3,48800	78
3,49867	83
3,50933	62
3,52000	35
3,53067	9
3,54133	-5
3,55200	-26
3,56267	-35
3,57333	-42
3,58400	-34
3,59467	-35
3,60533	-34
3,61600	-32
3,62667	-28
3,63733	-26
3,64800	-30
3,65867	-23
3,66933	-15
3,68000	-9
3,69067	-4
3,70133	8
3,71200	6
3,72267	14
3,73333	24
3,74400	28
3,75467	26
3,76533	30
3,77600	35
3,78667	33
3,79733	36
3,80800	36
3,81867	40
3,82933	49
3,84000	54
3,85067	40
3,86133	40
3,87200	41
3,88267	49
3,89333	47
3,90400	41
3,91467	42
3,92533	43
3,93600	40
3,94667	40
3,95733	38
3,96800	45
3,97867	44
3,98933	40
4,00000	46
4,01067	44
4,02133	46
4,03200	47
4,04267	39
4,05333	41
4,06400	44
4,07467	41
4,08533	29
4,09600	32
4,10667	32
4,11733	35
4,12800	41
4,13867	39
4,14933	38
4,16000	38
4,17067	37
4,18133	37
4,19200	36
4,20267	40
4,21333	36
4,22400	32
4,23467	37
4,24533	31
4,25600	26
4,26667	27
4,27733	35
4,28800	31
4,29867	32
4,30933	35
4,32000	32
4,33067	27
4,34133	28
4,35200	36
4,36267	31
4,37333	30
4,38400	26
4,39467	35
4,40533	33
4,41600	42
4,42667	45
4,43733	34
4,44800	35
4,45867	39
4,46933	44
4,48000	42
4,49067	37
4,50133	41
4,51200	36
4,52267	37
4,53333	32
4,54400	38
4,55467	41
4,56533	42
4,57600	47
4,58667	49
4,59733	57
4,60800	53
4,61867	50
4,62933	56
4,64000	62
4,65067	67
4,66133	71
4,67200	75
4,68267	70
4,69333	71
4,70400	63
4,71467	73
4,72533	81
4,73600	81
4,74667	82
4,75733	85
4,76800	89
4,77867	91
4,78933	98
4,80000	97
4,81067	100
4,82133	108
4,83200	109
4,84267	111
4,85333	123
4,86400	119
4,87467	123
4,88533	119
4,89600	120
4,90667	122
4,91733	122
4,92800	119
4,93867	121
4,94933	120
4,96000	129
4,97067	143
4,98133	145
4,99200	148
5,00267	149
5,01333	152
5,02400	156
5,03467	155
5,04533	165
5,05600	166
5,06667	170
5,07733	174
5,08800	177
5,09867	177
5,10933	180
5,12000	184
5,13067	191
5,14133	193
5,15200	192
5,16267	193
5,17333	206
5,18400	208
5,19467	204
5,20533	203
5,21600	203
5,22667	208
5,23733	210
5,24800	214
5,25867	221
5,26933	232
5,28000	224
5,29067	234
5,30133	235
5,31200	237
5,32267	243
5,33333	249
5,34400	245
5,35467	258
5,36533	259
5,37600	260
5,38667	264
5,39733	275
5,40800	271
5,41867	277
5,42933	276
5,44000	278
5,45067	288
5,46133	290
5,47200	294
5,48267	298
5,49333	304
5,50400	318
5,51467	316
5,52533	317
5,53600	320
5,54667	321
5,55733	316
5,56800	325
5,57867	336
5,58933	333
5,60000	332
5,61067	334
5,62133	335
5,63200	341
5,64267	342
5,65333	344
5,66400	348
5,67467	346
5,68533	351
5,69600	355
5,70667	359
5,71733	367
5,72800	373
5,73867	369
5,74933	373
5,76000	380
5,77067	382
5,78133	388
5,79200	391
5,80267	393
5,81333	401
5,82400	412
5,83467	417
5,84533	430
5,85600	443
5,86667	459
5,87733	488
5,88800	517
5,89867	548
5,90933	591
5,92000	636
5,93067	692
5,94133	746
5,95200	801
5,96267	858
5,97333	904
5,98400	947
5,99467	984
6,00533	1019
6,01600	1036
6,02667	1055
6,03733	1061
6,04800	1062
6,05867	1057
6,06933	1040
6,08000	1022
6,09067	1002
6,10133	976
6,11200	936
6,12267	899
6,13333	858
6,14400	817
6,15467	766
6,16533	734
6,17600	694
6,18667	674
6,19733	630
6,20800	603
6,21867	584
6,22933	563
6,24000	553
6,25067	547
6,26133	538
6,27200	535
6,28267	534
6,29333	525
6,30400	530
6,31467	529
6,32533	529
6,33600	530
6,34667	536
6,35733	542
6,36800	550
6,37867	551
6,38933	553
6,40000	559
6,41067	564
6,42133	563
6,43200	573
6,44267	580
6,45333	580
6,46400	590
6,47467	593
6,48533	591
6,49600	600
6,50667	596
6,51733	601
6,52800	598
6,53867	598
6,54933	604
6,56000	605
6,57067	602
6,58133	603
6,59200	606
6,60267	606
6,61333	601
6,62400	608
6,63467	604
6,64533	606
6,65600	610
6,66667	606
6,67733	610
6,68800	607
6,69867	610
6,70933	610
6,72000	621
6,73067	620
6,74133	612
6,75200	622
6,76267	622
6,77333	629
6,78400	629
6,79467	630
6,80533	627
6,81600	638
6,82667	634
6,83733	637
6,84800	646
6,85867	649
6,86933	646
6,88000	641
6,89067	654
6,90133	656
6,91200	665
6,92267	660
6,93333	668
6,94400	674
6,95467	671
6,96533	677
6,97600	682
6,98667	688
6,99733	694
7,00800	691
7,01867	700
7,02933	695
7,04000	706
7,05067	702
7,06133	702
7,07200	708
7,08267	713
7,09333	718
7,10400	712
7,11467	708
7,12533	709
7,13600	727
7,14667	723
7,15733	720
7,16800	718
7,17867	723
7,18933	719
7,20000	727
7,21067	731
7,22133	733
7,23200	740
7,24267	745
7,25333	748
7,26400	751
7,27467	752
7,28533	748
7,29600	756
7,30667	760
7,31733	760
7,32800	767
7,33867	771
7,34933	771
7,36000	771
7,37067	768
7,38133	763
7,39200	771
7,40267	778
7,41333	780
7,42400	780
7,43467	786
7,44533	801
7,45600	802
7,46667	797
7,47733	797
7,48800	803
7,49867	809
7,50933	811
7,52000	809
7,53067	813
7,54133	814
7,55200	828
7,56267	827
7,57333	823
7,58400	822
7,59467	823
7,60533	828
7,61600	836
7,62667	844
7,63733	846
7,64800	852
7,65867	857
7,66933	847
7,68000	849
7,69067	854
7,70133	858
7,71200	859
7,72267	868
7,73333	867
7,74400	867
7,75467	875
7,76533	886
7,77600	886
7,78667	876
7,79733	880
7,80800	886
7,81867	889
7,82933	887
7,84000	895
7,85067	887
7,86133	890
7,87200	905
7,88267	902
7,89333	906
7,90400	909
7,91467	902
7,92533	911
7,93600	919
7,94667	913
7,95733	910
7,96800	919
7,97867	922
7,98933	927
8,00000	932
8,01067	939
8,02133	935
8,03200	938
8,04267	940
8,05333	943
8,06400	944
8,07467	951
8,08533	953
8,09600	950
8,10667	959
8,11733	966
8,12800	966
8,13867	966
8,14933	965
8,16000	972
8,17067	975
8,18133	978
8,19200	974
8,20267	982
8,21333	985
8,22400	986
8,23467	994
8,24533	996
8,25600	996
8,26667	998
8,27733	1000
8,28800	1002
8,29867	1013
8,30933	1011
8,32000	1013
8,33067	1022
8,34133	1019
8,35200	1023
8,36267	1031
8,37333	1035
8,38400	1030
8,39467	1042
8,40533	1039
8,41600	1041
8,42667	1053
8,43733	1050
8,44800	1053
8,45867	1051
8,46933	1062
8,48000	1058
8,49067	1067
8,50133	1071
8,51200	1077
8,52267	1077
8,53333	1084
8,54400	1089
8,55467	1092
8,56533	1091
8,57600	1100
8,58667	1095
8,59733	1101
8,60800	1115
8,61867	1117
8,62933	1118
8,64000	1119
8,65067	1121
8,66133	1123
8,67200	1121
8,68267	1120
8,69333	1128
8,70400	1131
8,71467	1140
8,72533	1140
8,73600	1136
8,74667	1149
8,75733	1156
8,76800	1150
8,77867	1151
8,78933	1155
8,80000	1156
8,81067	1155
8,82133	1168
8,83200	1168
8,84267	1167
8,85333	1163
8,86400	1168
8,87467	1172
8,88533	1182
8,89600	1185
8,90667	1192
8,91733	1191
8,92800	1187
8,93867	1186
8,94933	1189
8,96000	1193
8,97067	1191
8,98133	1194
8,99200	1201
9,00267	1205
9,01333	1215
9,02400	1214
9,03467	1217
9,04533	1217
9,05600	1220
9,06667	1221
9,07733	1223
9,08800	1233
9,09867	1226
9,10933	1236
9,12000	1234
9,13067	1241
9,14133	1240
9,15200	1246
9,16267	1249
9,17333	1249
9,18400	1258
9,19467	1262
9,20533	1259
9,21600	1267
9,22667	1264
9,23733	1277
9,24800	1266
9,25867	1278
9,26933	1272
9,28000	1268
9,29067	1270
9,30133	1274
9,31200	1281
9,32267	1288
9,33333	1290
9,34400	1290
9,35467	1292
9,36533	1297
9,37600	1300
9,38667	1311
9,39733	1310
9,40800	1304
9,41867	1309
9,42933	1308
9,44000	1318
9,45067	1327
9,46133	1325
9,47200	1330
9,48267	1329
9,49333	1340
9,50400	1344
9,51467	1353
9,52533	1348
9,53600	1352
9,54667	1353
9,55733	1351
9,56800	1359
9,57867	1363
9,58933	1365
9,60000	1368
9,61067	1380
9,62133	1378
9,63200	1377
9,64267	1386
9,65333	1390
9,66400	1395
9,67467	1411
9,68533	1406
9,69600	1407
9,70667	1421
9,71733	1421
9,72800	1418
9,73867	1418
9,74933	1421
9,76000	1420
9,77067	1419
9,78133	1426
9,79200	1426
9,80267	1432
9,81333	1429
9,82400	1432
9,83467	1439
9,84533	1440
9,85600	1435
9,86667	1441
9,87733	1453
9,88800	1451
9,89867	1459
9,90933	1459
9,92000	1464
9,93067	1463
9,94133	1465
9,95200	1470
9,96267	1477
9,97333	1482
9,98400	1481
9,99467	1473
10,00533	1477
10,01600	1480
10,02667	1488
10,03733	1498
10,04800	1495
10,05867	1495
10,06933	1502
10,08000	1516
10,09067	1508
10,10133	1514
10,11200	1510
10,12267	1512
10,13333	1518
10,14400	1525
10,15467	1525
10,16533	1528
10,17600	1524
10,18667	1529
10,19733	1534
10,20800	1537
10,21867	1540
10,22933	1543
10,24000	1551
10,25067	1557
10,26133	1551
10,27200	1551
10,28267	1556
10,29333	1566
10,30400	1574
10,31467	1574
10,32533	1578
10,33600	1577
10,34667	1584
10,35733	1583
10,36800	1590
10,37867	1596
10,38933	1591
10,40000	1601
10,41067	1610
10,42133	1607
10,43200	1608
10,44267	1613
10,45333	1617
10,46400	1616
10,47467	1619
10,48533	1632
10,49600	1638
10,50667	1637
10,51733	1636
10,52800	1635
10,53867	1638
10,54933	1647
10,56000	1647
10,57067	1646
10,58133	1651
10,59200	1660
10,60267	1663
10,61333	1665
10,62400	1668
10,63467	1676
10,64533	1666
10,65600	1678
10,66667	1685
10,67733	1678
10,68800	1680
10,69867	1686
10,70933	1696
10,72000	1701
10,73067	1695
10,74133	1702
10,75200	1700
10,76267	1707
10,77333	1703
10,78400	1702
10,79467	1707
10,80533	1715
10,81600	1723
10,82667	1718
10,83733	1722
10,84800	1725
10,85867	1731
10,86933	1735
10,88000	1733
10,89067	1739
10,90133	1747
10,91200	1754
10,92267	1754
10,93333	1755
10,94400	1758
10,95467	1765
10,96533	1767
10,97600	1766
10,98667	1777
10,99733	1779
11,00800	1783
11,01867	1788
11,02933	1791
11,04000	1795
11,05067	1796
11,06133	1798
11,07200	1802
11,08267	1800
11,09333	1808
11,10400	1811
11,11467	1810
11,12533	1812
11,13600	1815
11,14667	1816
11,15733	1822
11,16800	1822
11,17867	1821
11,18933	1836
11,20000	1833
11,21067	1841
11,22133	1842
11,23200	1843
11,24267	1842
11,25333	1850
11,26400	1859
11,27467	1860
11,28533	1866
11,29600	1869
11,30667	1869
11,31733	1873
11,32800	1876
11,33867	1876
11,34933	1891
11,36000	1894
11,37067	1901
11,38133	1902
11,39200	1896
11,40267	1896
11,41333	1904
11,42400	1907
11,43467	1915
11,44533	1911
11,45600	1912
11,46667	1917
11,47733	1916
11,48800	1924
11,49867	1926
11,50933	1933
11,52000	1930
11,53067	1925
11,54133	1933
11,55200	1928
11,56267	1939
11,57333	1942
11,58400	1947
11,59467	1957
11,60533	1954
11,61600	1960
11,62667	1964
11,63733	1976
11,64800	1978
11,65867	1982
11,66933	1981
11,68000	1987
11,69067	1988
11,70133	1995
11,71200	2003
11,72267	2004
11,73333	2002
11,74400	2010
11,75467	2007
11,76533	2015
11,77600	2016
11,78667	2027
11,79733	2032
11,80800	2036
11,81867	2042
11,82933	2039
11,84000	2044
11,85067	2054
11,86133	2051
11,87200	2058
11,88267	2062
11,89333	2068
11,90400	2071
11,91467	2066
11,92533	2074
11,93600	2080
11,94667	2087
11,95733	2090
11,96800	2084
11,97867	2090
11,98933	2086
12,00000	2094
12,01067	2099
12,02133	2099
12,03200	2109
12,04267	2114
12,05333	2119
12,06400	2119
12,07467	2117
12,08533	2124
12,09600	2128
12,10667	2134
12,11733	2129
12,12800	2136
12,13867	2141
12,14933	2143
12,16000	2150
12,17067	2149
12,18133	2156
12,19200	2154
12,20267	2159
12,21333	2163
12,22400	2174
12,23467	2182
12,24533	2181
12,25600	2183
12,26667	2186
12,27733	2189
12,28800	2190
12,29867	2198
12,30933	2208
12,32000	2218
12,33067	2217
12,34133	2214
12,35200	2224
12,36267	2233
12,37333	2234
12,38400	2236
12,39467	2242
12,40533	2244
12,41600	2253
12,42667	2244
12,43733	2252
12,44800	2258
12,45867	2268
12,46933	2269
12,48000	2277
12,49067	2283
12,50133	2287
12,51200	2293
12,52267	2297
12,53333	2300
12,54400	2306
12,55467	2304
12,56533	2305
12,57600	2309
12,58667	2308
12,59733	2319
12,60800	2314
12,61867	2319
12,62933	2324
12,64000	2328
12,65067	2334
12,66133	2332
12,67200	2335
12,68267	2335
12,69333	2342
12,70400	2344
12,71467	2341
12,72533	2346
12,73600	2349
12,74667	2358
12,75733	2364
12,76800	2357
12,77867	2362
12,78933	2364
12,80000	2368
12,81067	2376
12,82133	2378
12,83200	2384
12,84267	2378
12,85333	2383
12,86400	2391
12,87467	2390
12,88533	2395
12,89600	2405
12,90667	2405
12,91733	2406
12,92800	2417
12,93867	2422
12,94933	2426
12,96000	2439
12,97067	2437
12,98133	2443
12,99200	2448
13,00267	2453
13,01333	2452
13,02400	2460
13,03467	2460
13,04533	2461
13,05600	2469
13,06667	2472
13,07733	2475
13,08800	2476
13,09867	2478
13,10933	2481
13,12000	2490
13,13067	2494
13,14133	2498
13,15200	2510
13,16267	2516
13,17333	2512
13,18400	2518
13,19467	2525
13,20533	2519
13,21600	2526
13,22667	2524
13,23733	2536
13,24800	2538
13,25867	2543
13,26933	2547
13,28000	2555
13,29067	2554
13,30133	2560
13,31200	2566
13,32267	2574
13,33333	2571
13,34400	2574
13,35467	2574
13,36533	2586
13,37600	2584
13,38667	2591
13,39733	2602
13,40800	2605
13,41867	2601
13,42933	2610
13,44000	2609
13,45067	2617
13,46133	2620
13,47200	2621
13,48267	2629
13,49333	2633
13,50400	2630
13,51467	2638
13,52533	2646
13,53600	2650
13,54667	2648
13,55733	2648
13,56800	2651
13,57867	2659
13,58933	2668
13,60000	2669
13,61067	2671
13,62133	2681
13,63200	2687
13,64267	2685
13,65333	2698
13,66400	2699
13,67467	2700
13,68533	2703
13,69600	2712
13,70667	2715
13,71733	2726
13,72800	2729
13,73867	2724
13,74933	2728
13,76000	2727
13,77067	2735
13,78133	2745
13,79200	2747
13,80267	2756
13,81333	2751
13,82400	2759
13,83467	2766
13,84533	2764
13,85600	2769
13,86667	2777
13,87733	2782
13,88800	2780
13,89867	2791
13,90933	2794
13,92000	2800
13,93067	2799
13,94133	2803
13,95200	2815
13,96267	2810
13,97333	2808
13,98400	2821
13,99467	2828
14,00533	2838
14,01600	2835
14,02667	2840
14,03733	2854
14,04800	2857
14,05867	2860
14,06933	2866
14,08000	2873
14,09067	2873
14,10133	2881
14,11200	2885
14,12267	2888
14,13333	2893
14,14400	2900
14,15467	2903
14,16533	2909
14,17600	2909
14,18667	2909
14,19733	2910
14,20800	2914
14,21867	2921
14,22933	2921
14,24000	2931
14,25067	2937
14,26133	2942
14,27200	2944
14,28267	2949
14,29333	2955
14,30400	2958
14,31467	2974
14,32533	2981
14,33600	2982
14,34667	2986
14,35733	2983
14,36800	2985
14,37867	2995
14,38933	3003
14,40000	3008
14,41067	3010
14,42133	3019
14,43200	3026
14,44267	3027
14,45333	3029
14,46400	3033
14,47467	3042
14,48533	3043
14,49600	3048
14,50667	3058
14,51733	3063
14,52800	3069
14,53867	3077
14,54933	3087
14,56000	3082
14,57067	3084
14,58133	3093
14,59200	3096
14,60267	3099
14,61333	3109
14,62400	3115
14,63467	3120
14,64533	3131
14,65600	3129
14,66667	3140
14,67733	3137
14,68800	3142
14,69867	3158
14,70933	3156
14,72000	3162
14,73067	3169
14,74133	3180
14,75200	3185
14,76267	3186
14,77333	3193
14,78400	3197
14,79467	3201
14,80533	3205
14,81600	3208
14,82667	3219
14,83733	3224
14,84800	3230
14,85867	3229
14,86933	3235
14,88000	3246
14,89067	3245
14,90133	3248
14,91200	3255
14,92267	3256
14,93333	3272
14,94400	3272
14,95467	3278
14,96533	3279
14,97600	3286
14,98667	3293
14,99733	3295
15,00800	3302
15,01867	3308
15,02933	3304
15,04000	3311
15,05067	3320
15,06133	3322
15,07200	3329
15,08267	3335
15,09333	3340
15,10400	3341
15,11467	3354
15,12533	3348
15,13600	3357
15,14667	3363
15,15733	3371
15,16800	3369
15,17867	3375
15,18933	3378
15,20000	3391
15,21067	3391
15,22133	3398
15,23200	3399
15,24267	3406
15,25333	3412
15,26400	3410
15,27467	3411
15,28533	3414
15,29600	3418
15,30667	3430
15,31733	3431
15,32800	3438
15,33867	3444
15,34933	3447
15,36000	3446
15,37067	3451
15,38133	3456
15,39200	3466
15,40267	3475
15,41333	3478
15,42400	3487
15,43467	3500
15,44533	3507
15,45600	3526
15,46667	3529
15,47733	3541
15,48800	3556
15,49867	3558
15,50933	3565
15,52000	3577
15,53067	3593
15,54133	3601
15,55200	3599
15,56267	3608
15,57333	3614
15,58400	3607
15,59467	3610
15,60533	3611
15,61600	3606
15,62667	3604
15,63733	3598
15,64800	3603
15,65867	3595
15,66933	3600
15,68000	3603
15,69067	3598
15,70133	3594
15,71200	3602
15,72267	3606
15,73333	3606
15,74400	3613
15,75467	3619
15,76533	3620
15,77600	3620
15,78667	3634
15,79733	3631
15,80800	3632
15,81867	3635
15,82933	3639
15,84000	3645
15,85067	3663
15,86133	3663
15,87200	3662
15,88267	3670
15,89333	3668
15,90400	3674
15,91467	3680
15,92533	3689
15,93600	3686
15,94667	3688
15,95733	3702
15,96800	3711
15,97867	3708
15,98933	3706
16,00000	3723
16,01067	3720
16,02133	3731
16,03200	3733
16,04267	3736
16,05333	3737
16,06400	3743
16,07467	3751
16,08533	3757
16,09600	3763
16,10667	3765
16,11733	3759
16,12800	3766
16,13867	3768
16,14933	3774
16,16000	3779
16,17067	3784
16,18133	3785
16,19200	3787
16,20267	3799
16,21333	3803
16,22400	3801
16,23467	3800
16,24533	3814
16,25600	3829
16,26667	3826
16,27733	3835
16,28800	3843
16,29867	3846
16,30933	3856
16,32000	3856
16,33067	3862
16,34133	3870
16,35200	3875
16,36267	3881
16,37333	3886
16,38400	3890
16,39467	3897
16,40533	3905
16,41600	3904
16,42667	3903
16,43733	3912
16,44800	3921
16,45867	3929
16,46933	3936
16,48000	3945
16,49067	3946
16,50133	3952
16,51200	3965
16,52267	3967
16,53333	3972
16,54400	3974
16,55467	3980
16,56533	3989
16,57600	3998
16,58667	4006
16,59733	4004
16,60800	4015
16,61867	4021
16,62933	4021
16,64000	4041
16,65067	4041
16,66133	4036
16,67200	4044
16,68267	4050
16,69333	4049
16,70400	4053
16,71467	4054
16,72533	4058
16,73600	4067
16,74667	4065
16,75733	4067
16,76800	4079
16,77867	4075
16,78933	4073
16,80000	4080
16,81067	4085
16,82133	4091
16,83200	4100
16,84267	4105
16,85333	4112
16,86400	4120
16,87467	4128
16,88533	4117
16,89600	4127
16,90667	4123
16,91733	4132
16,92800	4135
16,93867	4141
16,94933	4142
16,96000	4151
16,97067	4158
16,98133	4160
16,99200	4168
17,00267	4169
17,01333	4179
17,02400	4185
17,03467	4185
17,04533	4187
17,05600	4184
17,06667	4190
17,07733	4190
17,08800	4206
17,09867	4206
17,10933	4207
17,12000	4211
17,13067	4216
17,14133	4215
17,15200	4220
17,16267	4224
17,17333	4229
17,18400	4237
17,19467	4236
17,20533	4240
17,21600	4245
17,22667	4252
17,23733	4251
17,24800	4254
17,25867	4257
17,26933	4264
17,28000	4268
17,29067	4274
17,30133	4274
17,31200	4281
17,32267	4285
17,33333	4286
17,34400	4291
17,35467	4295
17,36533	4298
17,37600	4308
17,38667	4312
17,39733	4317
17,40800	4315
17,41867	4327
17,42933	4335
17,44000	4339
17,45067	4344
17,46133	4354
17,47200	4351
17,48267	4358
17,49333	4364
17,50400	4368
17,51467	4369
17,52533	4374
17,53600	4377
17,54667	4381
17,55733	4392
17,56800	4399
17,57867	4402
17,58933	4407
17,60000	4410
17,61067	4409
17,62133	4412
17,63200	4417
17,64267	4420
17,65333	4436
17,66400	4440
17,67467	4451
17,68533	4452
17,69600	4461
17,70667	4470
17,71733	4475
17,72800	4486
17,73867	4494
17,74933	4504
17,76000	4506
17,77067	4505
17,78133	4500
17,79200	4501
17,80267	4508
17,81333	4513
17,82400	4511
17,83467	4512
17,84533	4507
17,85600	4509
17,86667	4515
17,87733	4517
17,88800	4518
17,89867	4528
17,90933	4533
17,92000	4528
17,93067	4533
17,94133	4536
17,95200	4547
17,96267	4560
17,97333	4561
17,98400	4570
17,99467	4573
18,00533	4577
18,01600	4587
18,02667	4595
18,03733	4601
18,04800	4607
18,05867	4603
18,06933	4624
18,08000	4620
18,09067	4631
18,10133	4645
18,11200	4644
18,12267	4644
18,13333	4654
18,14400	4660
18,15467	4673
18,16533	4676
18,17600	4688
18,18667	4697
18,19733	4704
18,20800	4709
18,21867	4713
18,22933	4721
18,24000	4736
18,25067	4736
18,26133	4737
18,27200	4741
18,28267	4748
18,29333	4753
18,30400	4758
18,31467	4767
18,32533	4769
18,33600	4765
18,34667	4763
18,35733	4766
18,36800	4764
18,37867	4766
18,38933	4771
18,40000	4775
18,41067	4787
18,42133	4790
18,43200	4793
18,44267	4797
18,45333	4807
18,46400	4814
18,47467	4816
18,48533	4814
18,49600	4814
18,50667	4827
18,51733	4827
18,52800	4833
18,53867	4837
18,54933	4852
18,56000	4852
18,57067	4861
18,58133	4874
18,59200	4878
18,60267	4877
18,61333	4882
18,62400	4895
18,63467	4897
18,64533	4907
18,65600	4914
18,66667	4916
18,67733	4915
18,68800	4917
18,69867	4924
18,70933	4933
18,72000	4949
18,73067	4947
18,74133	4946
18,75200	4950
18,76267	4956
18,77333	4961
18,78400	4955
18,79467	4958
18,80533	4966
18,81600	4963
18,82667	4960
18,83733	4969
18,84800	4977
18,85867	4981
18,86933	4982
18,88000	4989
18,89067	4989
18,90133	5000
18,91200	4998
18,92267	4996
18,93333	5005
18,94400	5013
18,95467	5015
18,96533	5016
18,97600	5030
18,98667	5030
18,99733	5030
19,00800	5042
19,01867	5044
19,02933	5057
19,04000	5060
19,05067	5066
19,06133	5078
19,07200	5076
19,08267	5093
19,09333	5104
19,10400	5123
19,11467	5135
19,12533	5154
19,13600	5170
19,14667	5199
19,15733	5232
19,16800	5245
19,17867	5280
19,18933	5307
19,20000	5339
19,21067	5357
19,22133	5373
19,23200	5393
19,24267	5407
19,25333	5402
19,26400	5402
19,27467	5396
19,28533	5383
19,29600	5365
19,30667	5345
19,31733	5329
19,32800	5313
19,33867	5297
19,34933	5277
19,36000	5260
19,37067	5256
19,38133	5240
19,39200	5241
19,40267	5229
19,41333	5226
19,42400	5228
19,43467	5225
19,44533	5225
19,45600	5226
19,46667	5227
19,47733	5230
19,48800	5231
19,49867	5237
19,50933	5234
19,52000	5241
19,53067	5248
19,54133	5254
19,55200	5258
19,56267	5265
19,57333	5268
19,58400	5272
19,59467	5274
19,60533	5275
19,61600	5288
19,62667	5293
19,63733	5293
19,64800	5298
19,65867	5302
19,66933	5297
19,68000	5307
19,69067	5311
19,70133	5319
19,71200	5324
19,72267	5323
19,73333	5327
19,74400	5331
19,75467	5337
19,76533	5345
19,77600	5361
19,78667	5363
19,79733	5362
19,80800	5364
19,81867	5377
19,82933	5385
19,84000	5385
19,85067	5387
19,86133	5395
19,87200	5404
19,88267	5403
19,89333	5416
19,90400	5428
19,91467	5435
19,92533	5443
19,93600	5443
19,94667	5442
19,95733	5452
19,96800	5461
19,97867	5462
19,98933	5469
20,00000	5475
20,01067	5485
20,02133	5487
20,03200	5496
20,04267	5492
20,05333	5498
20,06400	5504
20,07467	5503
20,08533	5514
20,09600	5526
20,10667	5533
20,11733	5545
20,12800	5544
20,13867	5553
20,14933	5564
20,16000	5575
20,17067	5596
20,18133	5614
20,19200	5646
20,20267	5673
20,21333	5700
20,22400	5730
20,23467	5765
20,24533	5801
20,25600	5835
20,26667	5869
20,27733	5898
20,28800	5925
20,29867	5946
20,30933	5961
20,32000	5966
20,33067	5951
20,34133	5946
20,35200	5932
20,36267	5910
20,37333	5884
20,38400	5858
20,39467	5846
20,40533	5819
20,41600	5793
20,42667	5772
20,43733	5761
20,44800	5746
20,45867	5738
20,46933	5724
20,48000	5721
20,49067	5714
20,50133	5720
20,51200	5720
20,52267	5725
20,53333	5717
20,54400	5723
20,55467	5728
20,56533	5738
20,57600	5738
20,58667	5743
20,59733	5740
20,60800	5749
20,61867	5744
20,62933	5747
20,64000	5758
20,65067	5764
20,66133	5773
20,67200	5777
20,68267	5787
20,69333	5791
20,70400	5796
20,71467	5793
20,72533	5809
20,73600	5811
20,74667	5808
20,75733	5818
20,76800	5825
20,77867	5834
20,78933	5835
20,80000	5844
20,81067	5850
20,82133	5856
20,83200	5863
20,84267	5867
20,85333	5878
20,86400	5904
20,87467	5922
20,88533	5940
20,89600	5969
20,90667	6008
20,91733	6049
20,92800	6086
20,93867	6135
20,94933	6201
20,96000	6247
20,97067	6316
20,98133	6374
20,99200	6427
21,00267	6470
21,01333	6504
21,02400	6530
21,03467	6546
21,04533	6538
21,05600	6524
21,06667	6506
21,07733	6468
21,08800	6430
21,09867	6370
21,10933	6326
21,12000	6288
21,13067	6240
21,14133	6204
21,15200	6169
21,16267	6142
21,17333	6121
21,18400	6107
21,19467	6098
21,20533	6088
21,21600	6081
21,22667	6071
21,23733	6066
21,24800	6057
21,25867	6056
21,26933	6063
21,28000	6061
21,29067	6066
21,30133	6062
21,31200	6072
21,32267	6076
21,33333	6076
21,34400	6083
21,35467	6083
21,36533	6091
21,37600	6090
21,38667	6095
21,39733	6098
21,40800	6105
21,41867	6116
21,42933	6126
21,44000	6126
21,45067	6148
21,46133	6168
21,47200	6181
21,48267	6206
21,49333	6244
21,50400	6289
21,51467	6361
21,52533	6437
21,53600	6559
21,54667	6689
21,55733	6836
21,56800	7020
21,57867	7225
21,58933	7455
21,60000	7696
21,61067	7942
21,62133	8187
21,63200	8409
21,64267	8598
21,65333	8753
21,66400	8849
21,67467	8905
21,68533	8903
21,69600	8835
21,70667	8722
21,71733	8568
21,72800	8395
21,73867	8194
21,74933	7981
21,76000	7778
21,77067	7583
21,78133	7405
21,79200	7245
21,80267	7101
21,81333	6975
21,82400	6868
21,83467	6783
21,84533	6713
21,85600	6649
21,86667	6607
21,87733	6565
21,88800	6528
21,89867	6500
21,90933	6469
21,92000	6452
21,93067	6432
21,94133	6426
21,95200	6422
21,96267	6420
21,97333	6422
21,98400	6418
21,99467	6419
22,00533	6416
22,01600	6422
22,02667	6422
22,03733	6425
22,04800	6425
22,05867	6438
22,06933	6439
22,08000	6443
22,09067	6446
22,10133	6446
22,11200	6456
22,12267	6468
22,13333	6468
22,14400	6470
22,15467	6474
22,16533	6475
22,17600	6478
22,18667	6491
22,19733	6489
22,20800	6499
22,21867	6507
22,22933	6518
22,24000	6519
22,25067	6526
22,26133	6529
22,27200	6527
22,28267	6529
22,29333	6542
22,30400	6546
22,31467	6557
22,32533	6559
22,33600	6565
22,34667	6568
22,35733	6574
22,36800	6585
22,37867	6594
22,38933	6601
22,40000	6607
22,41067	6609
22,42133	6615
22,43200	6620
22,44267	6615
22,45333	6622
22,46400	6633
22,47467	6639
22,48533	6638
22,49600	6650
22,50667	6656
22,51733	6661
22,52800	6666
22,53867	6674
22,54933	6680
22,56000	6691
22,57067	6700
22,58133	6715
22,59200	6719
22,60267	6723
22,61333	6730
22,62400	6734
22,63467	6742
22,64533	6754
22,65600	6755
22,66667	6758
22,67733	6759
22,68800	6761
22,69867	6770
22,70933	6780
22,72000	6787
22,73067	6791
22,74133	6795
22,75200	6802
22,76267	6810
22,77333	6817
22,78400	6824
22,79467	6823
22,80533	6841
22,81600	6838
22,82667	6842
22,83733	6848
22,84800	6858
22,85867	6869
22,86933	6871
22,88000	6877
22,89067	6871
22,90133	6877
22,91200	6892
22,92267	6899
22,93333	6900
22,94400	6900
22,95467	6911
22,96533	6915
22,97600	6915
22,98667	6922
22,99733	6928
23,00800	6932
23,01867	6933
23,02933	6941
23,04000	6940
23,05067	6950
23,06133	6960
23,07200	6962
23,08267	6969
23,09333	6973
23,10400	6985
23,11467	6991
23,12533	7003
23,13600	7022
23,14667	7029
23,15733	7045
23,16800	7063
23,17867	7078
23,18933	7085
23,20000	7098
23,21067	7103
23,22133	7119
23,23200	7128
23,24267	7136
23,25333	7145
23,26400	7153
23,27467	7159
23,28533	7163
23,29600	7164
23,30667	7166
23,31733	7162
23,32800	7157
23,33867	7151
23,34933	7148
23,36000	7146
23,37067	7149
23,38133	7150
23,39200	7152
23,40267	7148
23,41333	7146
23,42400	7149
23,43467	7153
23,44533	7156
23,45600	7152
23,46667	7149
23,47733	7145
23,48800	7155
23,49867	7156
23,50933	7160
23,52000	7164
23,53067	7171
23,54133	7175
23,55200	7177
23,56267	7179
23,57333	7184
23,58400	7192
23,59467	7196
23,60533	7199
23,61600	7205
23,62667	7210
23,63733	7224
23,64800	7235
23,65867	7228
23,66933	7242
23,68000	7252
23,69067	7271
23,70133	7286
23,71200	7299
23,72267	7311
23,73333	7316
23,74400	7331
23,75467	7340
23,76533	7367
23,77600	7385
23,78667	7394
23,79733	7417
23,80800	7435
23,81867	7452
23,82933	7472
23,84000	7482
23,85067	7485
23,86133	7503
23,87200	7515
23,88267	7521
23,89333	7533
23,90400	7533
23,91467	7531
23,92533	7529
23,93600	7522
23,94667	7521
23,95733	7520
23,96800	7511
23,97867	7507
23,98933	7502
24,00000	7500
24,01067	7496
24,02133	7483
24,03200	7487
24,04267	7481
24,05333	7482
24,06400	7490
24,07467	7496
24,08533	7500
24,09600	7500
24,10667	7496
24,11733	7514
24,12800	7529
24,13867	7545
24,14933	7556
24,16000	7581
24,17067	7606
24,18133	7636
24,19200	7671
24,20267	7731
24,21333	7774
24,22400	7820
24,23467	7879
24,24533	7943
24,25600	7999
24,26667	8069
24,27733	8129
24,28800	8180
24,29867	8228
24,30933	8268
24,32000	8302
24,33067	8322
24,34133	8331
24,35200	8320
24,36267	8316
24,37333	8299
24,38400	8282
24,39467	8264
24,40533	8256
24,41600	8233
24,42667	8227
24,43733	8214
24,44800	8207
24,45867	8198
24,46933	8193
24,48000	8190
24,49067	8178
24,50133	8180
24,51200	8165
24,52267	8145
24,53333	8115
24,54400	8099
24,55467	8074
24,56533	8041
24,57600	8012
24,58667	7983
24,59733	7960
24,60800	7931
24,61867	7914
24,62933	7896
24,64000	7887
24,65067	7879
24,66133	7866
24,67200	7869
24,68267	7878
24,69333	7876
24,70400	7881
24,71467	7886
24,72533	7898
24,73600	7915
24,74667	7930
24,75733	7949
24,76800	7958
24,77867	7979
24,78933	7994
24,80000	8014
24,81067	8031
24,82133	8039
24,83200	8048
24,84267	8062
24,85333	8058
24,86400	8060
24,87467	8060
24,88533	8062
24,89600	8059
24,90667	8055
24,91733	8055
24,92800	8058
24,93867	8040
24,94933	8042
24,96000	8043
24,97067	8051
24,98133	8050
24,99200	8047
25,00267	8061
25,01333	8073
25,02400	8083
25,03467	8096
25,04533	8115
25,05600	8120
25,06667	8136
25,07733	8162
25,08800	8179
25,09867	8197
25,10933	8218
25,12000	8229
25,13067	8242
25,14133	8247
25,15200	8256
25,16267	8268
25,17333	8274
25,18400	8285
25,19467	8282
25,20533	8288
25,21600	8286
25,22667	8296
25,23733	8291
25,24800	8282
25,25867	8278
25,26933	8273
25,28000	8274
25,29067	8270
25,30133	8275
25,31200	8281
25,32267	8272
25,33333	8275
25,34400	8288
25,35467	8288
25,36533	8287
25,37600	8297
25,38667	8301
25,39733	8309
25,40800	8318
25,41867	8320
25,42933	8321
25,44000	8337
25,45067	8339
25,46133	8345
25,47200	8356
25,48267	8368
25,49333	8376
25,50400	8383
25,51467	8392
25,52533	8399
25,53600	8405
25,54667	8415
25,55733	8428
25,56800	8435
25,57867	8443
25,58933	8459
25,60000	8471
25,61067	8477
25,62133	8482
25,63200	8498
25,64267	8498
25,65333	8514
25,66400	8521
25,67467	8528
25,68533	8546
25,69600	8559
25,70667	8553
25,71733	8563
25,72800	8575
25,73867	8585
25,74933	8599
25,76000	8620
25,77067	8621
25,78133	8629
25,79200	8635
25,80267	8642
25,81333	8664
25,82400	8674
25,83467	8690
25,84533	8702
25,85600	8707
25,86667	8721
25,87733	8731
25,88800	8739
25,89867	8765
25,90933	8781
25,92000	8794
25,93067	8805
25,94133	8816
25,95200	8833
25,96267	8850
25,97333	8857
25,98400	8880
25,99467	8903
26,00533	8930
26,01600	8952
26,02667	8979
26,03733	9012
26,04800	9052
26,05867	9089
26,06933	9141
26,08000	9198
26,09067	9260
26,10133	9339
26,11200	9424
26,12267	9511
26,13333	9600
26,14400	9689
26,15467	9771
26,16533	9836
26,17600	9893
26,18667	9932
26,19733	9947
26,20800	9954
26,21867	9937
26,22933	9912
26,24000	9871
26,25067	9830
26,26133	9796
26,27200	9757
26,28267	9727
26,29333	9702
26,30400	9706
26,31467	9718
26,32533	9758
26,33600	9805
26,34667	9868
26,35733	9946
26,36800	10031
26,37867	10122
26,38933	10232
26,40000	10321
26,41067	10412
26,42133	10493
26,43200	10562
26,44267	10604
26,45333	10638
26,46400	10660
26,47467	10667
26,48533	10659
26,49600	10657
26,50667	10635
26,51733	10621
26,52800	10604
26,53867	10597
26,54933	10606
26,56000	10615
26,57067	10654
26,58133	10689
26,59200	10738
26,60267	10805
26,61333	10883
26,62400	10966
26,63467	11064
26,64533	11184
26,65600	11316
26,66667	11462
26,67733	11631
26,68800	11828
26,69867	12068
26,70933	12351
26,72000	12730
26,73067	13240
26,74133	14001
26,75200	15179
26,76267	17067
26,77333	20146
26,78400	25127
26,79467	33201
26,80533	45932
26,81600	65631
26,82667	94889
26,83733	137203
26,84800	195596
26,85867	273209
26,86933	370894
26,88000	488341
26,89067	621085
26,90133	762510
26,91200	902641
26,92267	1031689
26,93333	1140345
26,94400	1221085
26,95467	1269262
26,96533	1283326
26,97600	1264456
26,98667	1216821
26,99733	1145192
27,00800	1056186
27,01867	955333
27,02933	848876
27,04000	741357
27,05067	637646
27,06133	540449
27,07200	452356
27,08267	374275
27,09333	306959
27,10400	250038
27,11467	202660
27,12533	163808
27,13600	132232
27,14667	106940
27,15733	86731
27,16800	70698
27,17867	57972
27,18933	47931
27,20000	39994
27,21067	33753
27,22133	28811
27,23200	24953
27,24267	21917
27,25333	19566
27,26400	17726
27,27467	16316
27,28533	15215
27,29600	14371
27,30667	13728
27,31733	13226
27,32800	12834
27,33867	12532
27,34933	12292
27,36000	12102
27,37067	11941
27,38133	11815
27,39200	11703
27,40267	11612
27,41333	11539
27,42400	11463
27,43467	11396
27,44533	11344
27,45600	11291
27,46667	11241
27,47733	11193
27,48800	11154
27,49867	11125
27,50933	11090
27,52000	11050
27,53067	11018
27,54133	10990
27,55200	10958
27,56267	10934
27,57333	10908
27,58400	10882
27,59467	10865
27,60533	10838
27,61600	10834
27,62667	10817
27,63733	10805
27,64800	10801
27,65867	10772
27,66933	10768
27,68000	10755
27,69067	10742
27,70133	10737
27,71200	10729
27,72267	10718
27,73333	10719
27,74400	10702
27,75467	10695
27,76533	10687
27,77600	10685
27,78667	10679
27,79733	10682
27,80800	10676
27,81867	10681
27,82933	10686
27,84000	10685
27,85067	10692
27,86133	10699
27,87200	10700
27,88267	10707
27,89333	10725
27,90400	10724
27,91467	10731
27,92533	10725
27,93600	10722
27,94667	10712
27,95733	10716
27,96800	10696
27,97867	10680
27,98933	10668
28,00000	10662
28,01067	10649
28,02133	10646
28,03200	10640
28,04267	10628
28,05333	10619
28,06400	10621
28,07467	10614
28,08533	10617
28,09600	10614
28,10667	10612
28,11733	10617
28,12800	10622
28,13867	10634
28,14933	10634
28,16000	10640
28,17067	10645
28,18133	10642
28,19200	10657
28,20267	10664
28,21333	10666
28,22400	10670
28,23467	10670
28,24533	10674
28,25600	10683
28,26667	10690
28,27733	10691
28,28800	10702
28,29867	10705
28,30933	10712
28,32000	10719
28,33067	10726
28,34133	10732
28,35200	10743
28,36267	10740
28,37333	10744
28,38400	10752
28,39467	10762
28,40533	10764
28,41600	10770
28,42667	10776
28,43733	10792
28,44800	10805
28,45867	10801
28,46933	10817
28,48000	10822
28,49067	10840
28,50133	10851
28,51200	10874
28,52267	10890
28,53333	10898
28,54400	10916
28,55467	10927
28,56533	10936
28,57600	10942
28,58667	10949
28,59733	10953
28,60800	10956
28,61867	10960
28,62933	10952
28,64000	10950
28,65067	10943
28,66133	10930
28,67200	10918
28,68267	10918
28,69333	10909
28,70400	10901
28,71467	10903
28,72533	10898
28,73600	10882
28,74667	10874
28,75733	10871
28,76800	10872
28,77867	10874
28,78933	10867
28,80000	10869
28,81067	10870
28,82133	10871
28,83200	10874
28,84267	10874
28,85333	10878
28,86400	10880
28,87467	10893
28,88533	10905
28,89600	10911
28,90667	10919
28,91733	10928
28,92800	10935
28,93867	10932
28,94933	10945
28,96000	10956
28,97067	10966
28,98133	10971
28,99200	10975
29,00267	10975
29,01333	10977
29,02400	10971
29,03467	10982
29,04533	10991
29,05600	11001
29,06667	11005
29,07733	11019
29,08800	11024
29,09867	11035
29,10933	11040
29,12000	11045
29,13067	11053
29,14133	11061
29,15200	11076
29,16267	11074
29,17333	11076
29,18400	11083
29,19467	11080
29,20533	11093
29,21600	11101
29,22667	11098
29,23733	11105
29,24800	11111
29,25867	11111
29,26933	11122
29,28000	11128
29,29067	11131
29,30133	11138
29,31200	11151
29,32267	11159
29,33333	11171
29,34400	11170
29,35467	11182
29,36533	11189
29,37600	11198
29,38667	11208
29,39733	11210
29,40800	11214
29,41867	11214
29,42933	11221
29,44000	11226
29,45067	11242
29,46133	11249
29,47200	11247
29,48267	11256
29,49333	11264
29,50400	11273
29,51467	11282
29,52533	11287
29,53600	11302
29,54667	11315
29,55733	11321
29,56800	11324
29,57867	11336
29,58933	11346
29,60000	11361
29,61067	11378
29,62133	11388
29,63200	11405
29,64267	11410
29,65333	11421
29,66400	11435
29,67467	11440
29,68533	11438
29,69600	11441
29,70667	11443
29,71733	11438
29,72800	11439
29,73867	11442
29,74933	11438
29,76000	11445
29,77067	11456
29,78133	11461
29,79200	11461
29,80267	11468
29,81333	11471
29,82400	11487
29,83467	11494
29,84533	11509
29,85600	11526
29,86667	11542
29,87733	11570
29,88800	11595
29,89867	11619
29,90933	11642
29,92000	11665
29,93067	11706
29,94133	11732
29,95200	11760
29,96267	11792
29,97333	11833
29,98400	11885
29,99467	11949
30,00533	12026
30,01600	12147
30,02667	12338
30,03733	12592
30,04800	12958
30,05867	13478
30,06933	14170
30,08000	15085
30,09067	16243
30,10133	17651
30,11200	19315
30,12267	21221
30,13333	23271
30,14400	25382
30,15467	27447
30,16533	29333
30,17600	30916
30,18667	32073
30,19733	32711
30,20800	32831
30,21867	32396
30,22933	31462
30,24000	30109
30,25067	28468
30,26133	26626
30,27200	24718
30,28267	22853
30,29333	21092
30,30400	19487
30,31467	18084
30,32533	16893
30,33600	15900
30,34667	15081
30,35733	14422
30,36800	13889
30,37867	13478
30,38933	13145
30,40000	12885
30,41067	12691
30,42133	12535
30,43200	12417
30,44267	12318
30,45333	12250
30,46400	12201
30,47467	12162
30,48533	12133
30,49600	12113
30,50667	12105
30,51733	12099
30,52800	12099
30,53867	12103
30,54933	12107
30,56000	12114
30,57067	12117
30,58133	12129
30,59200	12136
30,60267	12144
30,61333	12156
30,62400	12174
30,63467	12183
30,64533	12192
30,65600	12205
30,66667	12213
30,67733	12227
30,68800	12253
30,69867	12272
30,70933	12302
30,72000	12339
30,73067	12385
30,74133	12447
30,75200	12549
30,76267	12683
30,77333	12888
30,78400	13156
30,79467	13537
30,80533	14067
30,81600	14749
30,82667	15624
30,83733	16707
30,84800	17996
30,85867	19495
30,86933	21167
30,88000	22919
30,89067	24698
30,90133	26404
30,91200	27922
30,92267	29152
30,93333	29997
30,94400	30410
30,95467	30365
30,96533	29870
30,97600	28977
30,98667	27752
30,99733	26300
31,00800	24716
31,01867	23093
31,02933	21531
31,04000	20050
31,05067	18714
31,06133	17560
31,07200	16578
31,08267	15754
31,09333	15086
31,10400	14549
31,11467	14123
31,12533	13794
31,13600	13531
31,14667	13324
31,15733	13166
31,16800	13039
31,17867	12942
31,18933	12868
31,20000	12813
31,21067	12763
31,22133	12728
31,23200	12705
31,24267	12683
31,25333	12667
31,26400	12662
31,27467	12660
31,28533	12651
31,29600	12657
31,30667	12655
31,31733	12662
31,32800	12663
31,33867	12671
31,34933	12677
31,36000	12680
31,37067	12677
31,38133	12682
31,39200	12696
31,40267	12714
31,41333	12729
31,42400	12753
31,43467	12764
31,44533	12789
31,45600	12831
31,46667	12875
31,47733	12923
31,48800	12972
31,49867	13039
31,50933	13110
31,52000	13167
31,53067	13223
31,54133	13290
31,55200	13340
31,56267	13377
31,57333	13398
31,58400	13408
31,59467	13396
31,60533	13380
31,61600	13348
31,62667	13306
31,63733	13269
31,64800	13223
31,65867	13179
31,66933	13133
31,68000	13095
31,69067	13058
31,70133	13033
31,71200	13004
31,72267	12983
31,73333	12971
31,74400	12960
31,75467	12958
31,76533	12953
31,77600	12949
31,78667	12945
31,79733	12946
31,80800	12948
31,81867	12945
31,82933	12953
31,84000	12951
31,85067	12962
31,86133	12968
31,87200	12974
31,88267	12972
31,89333	12979
31,90400	12986
31,91467	12991
31,92533	12992
31,93600	12996
31,94667	13007
31,95733	13007
31,96800	13022
31,97867	13027
31,98933	13029
32,00000	13035
32,01067	13042
32,02133	13046
32,03200	13045
32,04267	13055
32,05333	13061
32,06400	13066
32,07467	13079
32,08533	13079
32,09600	13082
32,10667	13096
32,11733	13098
32,12800	13091
32,13867	13112
32,14933	13126
32,16000	13126
32,17067	13130
32,18133	13136
32,19200	13139
32,20267	13146
32,21333	13157
32,22400	13162
32,23467	13166
32,24533	13173
32,25600	13186
32,26667	13194
32,27733	13197
32,28800	13207
32,29867	13223
32,30933	13236
32,32000	13236
32,33067	13249
32,34133	13253
32,35200	13273
32,36267	13276
32,37333	13291
32,38400	13313
32,39467	13322
32,40533	13332
32,41600	13350
32,42667	13362
32,43733	13379
32,44800	13393
32,45867	13404
32,46933	13427
32,48000	13445
32,49067	13462
32,50133	13479
32,51200	13508
32,52267	13523
32,53333	13550
32,54400	13577
32,55467	13592
32,56533	13630
32,57600	13661
32,58667	13680
32,59733	13713
32,60800	13749
32,61867	13778
32,62933	13806
32,64000	13841
32,65067	13874
32,66133	13907
32,67200	13948
32,68267	13989
32,69333	14022
32,70400	14065
32,71467	14108
32,72533	14152
32,73600	14191
32,74667	14235
32,75733	14289
32,76800	14333
32,77867	14388
32,78933	14430
32,80000	14481
32,81067	14542
32,82133	14605
32,83200	14665
32,84267	14727
32,85333	14791
32,86400	14860
32,87467	14931
32,88533	15008
32,89600	15084
32,90667	15180
32,91733	15283
32,92800	15381
32,93867	15485
32,94933	15597
32,96000	15702
32,97067	15816
32,98133	15920
32,99200	16021
33,00267	16130
33,01333	16237
33,02400	16331
33,03467	16434
33,04533	16528
33,05600	16616
33,06667	16707
33,07733	16794
33,08800	16881
33,09867	16968
33,10933	17064
33,12000	17160
33,13067	17250
33,14133	17343
33,15200	17442
33,16267	17540
33,17333	17639
33,18400	17737
33,19467	17839
33,20533	17939
33,21600	18038
33,22667	18135
33,23733	18244
33,24800	18343
33,25867	18447
33,26933	18551
33,28000	18669
33,29067	18762
33,30133	18866
33,31200	18976
33,32267	19078
33,33333	19176
33,34400	19273
33,35467	19366
33,36533	19451
33,37600	19537
33,38667	19630
33,39733	19723
33,40800	19812
33,41867	19906
33,42933	20005
33,44000	20095
33,45067	20186
33,46133	20274
33,47200	20361
33,48267	20444
33,49333	20533
33,50400	20621
33,51467	20724
33,52533	20823
33,53600	20925
33,54667	21031
33,55733	21150
33,56800	21286
33,57867	21431
33,58933	21561
33,60000	21692
33,61067	21817
33,62133	21930
33,63200	22010
33,64267	22092
33,65333	22187
33,66400	22268
33,67467	22351
33,68533	22434
33,69600	22532
33,70667	22625
33,71733	22724
33,72800	22826
33,73867	22937
33,74933	23064
33,76000	23186
33,77067	23309
33,78133	23441
33,79200	23570
33,80267	23680
33,81333	23795
33,82400	23885
33,83467	23988
33,84533	24098
33,85600	24195
33,86667	24300
33,87733	24416
33,88800	24536
33,89867	24646
33,90933	24753
33,92000	24872
33,93067	24992
33,94133	25114
33,95200	25241
33,96267	25366
33,97333	25483
33,98400	25590
33,99467	25703
34,00533	25814
34,01600	25928
34,02667	26051
34,03733	26191
34,04800	26355
34,05867	26550
34,06933	26749
34,08000	26938
34,09067	27088
34,10133	27196
34,11200	27278
34,12267	27331
34,13333	27384
34,14400	27451
34,15467	27535
34,16533	27634
34,17600	27737
34,18667	27878
34,19733	28034
34,20800	28209
34,21867	28415
34,22933	28632
34,24000	28873
34,25067	29130
34,26133	29376
34,27200	29601
34,28267	29803
34,29333	29968
34,30400	30098
34,31467	30192
34,32533	30264
34,33600	30330
34,34667	30423
34,35733	30517
34,36800	30631
34,37867	30764
34,38933	30923
34,40000	31102
34,41067	31349
34,42133	31628
34,43200	31933
34,44267	32239
34,45333	32499
34,46400	32711
34,47467	32854
34,48533	32949
34,49600	32997
34,50667	33010
34,51733	33005
34,52800	33012
34,53867	33027
34,54933	33040
34,56000	33058
34,57067	33080
34,58133	33119
34,59200	33164
34,60267	33233
34,61333	33319
34,62400	33411
34,63467	33492
34,64533	33564
34,65600	33617
34,66667	33682
34,67733	33744
34,68800	33804
34,69867	33865
34,70933	33941
34,72000	34016
34,73067	34113
34,74133	34213
34,75200	34329
34,76267	34465
34,77333	34604
34,78400	34759
34,79467	34931
34,80533	35097
34,81600	35253
34,82667	35395
34,83733	35551
34,84800	35718
34,85867	35870
34,86933	35988
34,88000	36073
34,89067	36148
34,90133	36218
34,91200	36281
34,92267	36361
34,93333	36465
34,94400	36593
34,95467	36765
34,96533	37095
34,97600	37883
34,98667	39865
34,99733	44164
35,00800	52217
35,01867	65119
35,02933	83226
35,04000	104783
35,05067	125891
35,06133	141040
35,07200	145727
35,08267	139226
35,09333	125160
35,10400	108890
35,11467	94179
35,12533	82537
35,13600	73934
35,14667	67839
35,15733	63659
35,16800	60823
35,17867	58844
35,18933	57285
35,20000	55878
35,21067	54552
35,22133	53345
35,23200	52305
35,24267	51456
35,25333	50751
35,26400	50174
35,27467	49680
35,28533	49249
35,29600	48874
35,30667	48537
35,31733	48233
35,32800	47975
35,33867	47769
35,34933	47613
35,36000	47447
35,37067	47177
35,38133	46752
35,39200	46250
35,40267	45840
35,41333	45681
35,42400	45937
35,43467	46853
35,44533	48592
35,45600	50934
35,46667	53188
35,47733	54595
35,48800	54872
35,49867	54275
35,50933	53224
35,52000	51977
35,53067	50679
35,54133	49523
35,55200	48806
35,56267	48714
35,57333	49154
35,58400	49708
35,59467	49923
35,60533	49575
35,61600	48786
35,62667	47869
35,63733	47047
35,64800	46376
35,65867	45849
35,66933	45435
35,68000	45135
35,69067	44927
35,70133	44788
35,71200	44692
35,72267	44631
35,73333	44614
35,74400	44636
35,75467	44688
35,76533	44754
35,77600	44878
35,78667	45097
35,79733	45457
35,80800	45951
35,81867	46514
35,82933	47035
35,84000	47377
35,85067	47479
35,86133	47403
35,87200	47261
35,88267	47073
35,89333	46824
35,90400	46501
35,91467	46143
35,92533	45794
35,93600	45497
35,94667	45262
35,95733	45092
35,96800	44974
35,97867	44931
35,98933	44939
36,00000	45001
36,01067	45093
36,02133	45173
36,03200	45209
36,04267	45186
36,05333	45105
36,06400	45021
36,07467	44948
36,08533	44902
36,09600	44896
36,10667	44920
36,11733	44988
36,12800	45074
36,13867	45190
36,14933	45341
36,16000	45521
36,17067	45694
36,18133	45852
36,19200	45979
36,20267	46074
36,21333	46173
36,22400	46283
36,23467	46381
36,24533	46441
36,25600	46446
36,26667	46408
36,27733	46381
36,28800	46451
36,29867	46683
36,30933	47056
36,32000	47421
36,33067	47624
36,34133	47582
36,35200	47340
36,36267	47010
36,37333	46680
36,38400	46409
36,39467	46188
36,40533	45996
36,41600	45843
36,42667	45713
36,43733	45617
36,44800	45553
36,45867	45520
36,46933	45512
36,48000	45510
36,49067	45525
36,50133	45538
36,51200	45546
36,52267	45569
36,53333	45591
36,54400	45603
36,55467	45626
36,56533	45640
36,57600	45648
36,58667	45668
36,59733	45682
36,60800	45693
36,61867	45709
36,62933	45727
36,64000	45751
36,65067	45787
36,66133	45833
36,67200	45883
36,68267	45943
36,69333	45983
36,70400	46001
36,71467	46004
36,72533	46016
36,73600	46044
36,74667	46098
36,75733	46180
36,76800	46276
36,77867	46346
36,78933	46369
36,80000	46329
36,81067	46250
36,82133	46161
36,83200	46067
36,84267	45987
36,85333	45916
36,86400	45883
36,87467	45846
36,88533	45821
36,89600	45811
36,90667	45803
36,91733	45806
36,92800	45814
36,93867	45818
36,94933	45843
36,96000	45903
36,97067	46018
36,98133	46184
36,99200	46405
37,00267	46655
37,01333	46892
37,02400	47047
37,03467	47107
37,04533	47045
37,05600	46896
37,06667	46697
37,07733	46485
37,08800	46296
37,09867	46138
37,10933	46024
37,12000	45948
37,13067	45905
37,14133	45888
37,15200	45897
37,16267	45933
37,17333	46001
37,18400	46104
37,19467	46227
37,20533	46349
37,21600	46434
37,22667	46464
37,23733	46420
37,24800	46324
37,25867	46215
37,26933	46115
37,28000	46035
37,29067	45968
37,30133	45923
37,31200	45885
37,32267	45868
37,33333	45859
37,34400	45849
37,35467	45839
37,36533	45843
37,37600	45840
37,38667	45845
37,39733	45848
37,40800	45852
37,41867	45850
37,42933	45856
37,44000	45861
37,45067	45872
37,46133	45881
37,47200	45894
37,48267	45907
37,49333	45919
37,50400	45929
37,51467	45941
37,52533	45947
37,53600	45948
37,54667	45948
37,55733	45941
37,56800	45928
37,57867	45929
37,58933	45919
37,60000	45935
37,61067	45930
37,62133	45925
37,63200	45926
37,64267	45934
37,65333	45933
37,66400	45947
37,67467	45947
37,68533	45956
37,69600	45960
37,70667	45967
37,71733	45985
37,72800	46000
37,73867	46032
37,74933	46055
37,76000	46085
37,77067	46111
37,78133	46130
37,79200	46148
37,80267	46157
37,81333	46149
37,82400	46138
37,83467	46121
37,84533	46096
37,85600	46092
37,86667	46071
37,87733	46073
37,88800	46054
37,89867	46057
37,90933	46050
37,92000	46043
37,93067	46048
37,94133	46047
37,95200	46057
37,96267	46050
37,97333	46053
37,98400	46046
37,99467	46048
38,00533	46060
38,01600	46065
38,02667	46064
38,03733	46059
38,04800	46061
38,05867	46064
38,06933	46061
38,08000	46057
38,09067	46067
38,10133	46062
38,11200	46067
38,12267	46061
38,13333	46065
38,14400	46057
38,15467	46062
38,16533	46077
38,17600	46086
38,18667	46090
38,19733	46097
38,20800	46109
38,21867	46120
38,22933	46132
38,24000	46146
38,25067	46152
38,26133	46151
38,27200	46146
38,28267	46158
38,29333	46157
38,30400	46149
38,31467	46143
38,32533	46140
38,33600	46133
38,34667	46129
38,35733	46128
38,36800	46133
38,37867	46130
38,38933	46127
38,40000	46125
38,41067	46125
38,42133	46130
38,43200	46136
38,44267	46139
38,45333	46153
38,46400	46154
38,47467	46158
38,48533	46163
38,49600	46166
38,50667	46166
38,51733	46168
38,52800	46169
38,53867	46172
38,54933	46178
38,56000	46186
38,57067	46189
38,58133	46195
38,59200	46192
38,60267	46193
38,61333	46196
38,62400	46200
38,63467	46216
38,64533	46229
38,65600	46240
38,66667	46245
38,67733	46255
38,68800	46268
38,69867	46289
38,70933	46302
38,72000	46319
38,73067	46355
38,74133	46412
38,75200	46517
38,76267	46674
38,77333	46943
38,78400	47383
38,79467	48059
38,80533	49081
38,81600	50548
38,82667	52557
38,83733	55195
38,84800	58403
38,85867	62082
38,86933	65984
38,88000	69708
38,89067	72829
38,90133	74912
38,91200	75687
38,92267	75028
38,93333	73050
38,94400	70067
38,95467	66476
38,96533	62738
38,97600	59194
38,98667	56111
38,99733	53591
39,00800	51665
39,01867	50249
39,02933	49242
39,04000	48538
39,05067	48052
39,06133	47708
39,07200	47463
39,08267	47278
39,09333	47122
39,10400	46982
39,11467	46857
39,12533	46743
39,13600	46625
39,14667	46517
39,15733	46402
39,16800	46278
39,17867	46153
39,18933	46028
39,20000	45887
39,21067	45741
39,22133	45589
39,23200	45437
39,24267	45264
39,25333	45089
39,26400	44903
39,27467	44701
39,28533	44501
39,29600	44285
39,30667	44072
39,31733	43844
39,32800	43610
39,33867	43368
39,34933	43124
39,36000	42877
39,37067	42631
39,38133	42375
39,39200	42111
39,40267	41855
39,41333	41613
39,42400	41370
39,43467	41111
39,44533	40869
39,45600	40646
39,46667	40420
39,47733	40176
39,48800	39935
39,49867	39693
39,50933	39436
39,52000	39150
39,53067	38825
39,54133	38476
39,55200	38113
39,56267	37719
39,57333	37306
39,58400	36926
39,59467	36562
39,60533	36171
39,61600	35716
39,62667	35190
39,63733	34542
39,64800	33780
39,65867	32912
39,66933	31929
39,68000	30845
39,69067	29678
39,70133	28464
39,71200	27238
39,72267	25984
39,73333	24697
39,74400	23403
39,75467	22104
39,76533	20823
39,77600	19580
39,78667	18390
39,79733	17257
39,80800	16200
39,81867	15200
39,82933	14254
39,84000	13360
39,85067	12548
39,86133	11780
39,87200	11080
39,88267	10430
39,89333	9833
39,90400	9286
39,91467	8780
39,92533	8322
39,93600	7905
39,94667	7528
39,95733	7167
39,96800	6832
39,97867	6526
39,98933	6251
40,00000	5989
40,01067	5731
40,02133	5495
40,03200	5284
40,04267	5091
40,05333	4907
40,06400	4727
40,07467	4552
40,08533	4403
40,09600	4251
40,10667	4107
40,11733	3975
40,12800	3846
40,13867	3716
40,14933	3601
40,16000	3487
40,17067	3373
40,18133	3274
40,19200	3182
40,20267	3090
40,21333	2995
40,22400	2914
40,23467	2832
40,24533	2757
40,25600	2682
40,26667	2609
40,27733	2536
40,28800	2469
40,29867	2409
40,30933	2351
40,32000	2287
40,33067	2230
40,34133	2175
40,35200	2122
40,36267	2070
40,37333	2027
40,38400	1973
40,39467	1934
40,40533	1887
40,41600	1850
40,42667	1805
40,43733	1767
40,44800	1726
40,45867	1685
40,46933	1651
40,48000	1614
40,49067	1585
40,50133	1548
40,51200	1509
40,52267	1478
40,53333	1450
40,54400	1418
40,55467	1385
40,56533	1350
40,57600	1318
40,58667	1299
40,59733	1277
40,60800	1248
40,61867	1220
40,62933	1188
40,64000	1157
40,65067	1131
40,66133	1111
40,67200	1084
40,68267	1055
40,69333	1036
40,70400	996
40,71467	968
40,72533	943
40,73600	924
40,74667	903
40,75733	870
40,76800	846
40,77867	818
40,78933	792
40,80000	773
40,81067	751
40,82133	723
40,83200	703
40,84267	679
40,85333	657
40,86400	632
40,87467	609
40,88533	582
40,89600	566
40,90667	548
40,91733	527
40,92800	508
40,93867	488
40,94933	478
40,96000	459
40,97067	449
40,98133	432
40,99200	417
41,00267	401
41,01333	383
41,02400	374
41,03467	358
41,04533	346
41,05600	332
41,06667	320
41,07733	307
41,08800	293
41,09867	285
41,10933	273
41,12000	270
41,13067	253
41,14133	245
41,15200	232
41,16267	223
41,17333	213
41,18400	206
41,19467	188
41,20533	181
41,21600	171
41,22667	163
41,23733	162
41,24800	149
41,25867	147
41,26933	132
41,28000	124
41,29067	122
41,30133	104
41,31200	97
41,32267	102
41,33333	96
41,34400	91
41,35467	76
41,36533	73
41,37600	65
41,38667	68
41,39733	60
41,40800	58
41,41867	64
41,42933	56
41,44000	57
41,45067	47
41,46133	51
41,47200	54
41,48267	61
41,49333	60
41,50400	60
41,51467	59
41,52533	65
41,53600	71
41,54667	78
41,55733	71
41,56800	72
41,57867	73
41,58933	78
41,60000	86
41,61067	94
41,62133	95
41,63200	106
41,64267	111
41,65333	117
41,66400	132
41,67467	133
41,68533	135
41,69600	141
41,70667	145
41,71733	155
41,72800	157
41,73867	152
41,74933	162
41,76000	180
41,77067	183
41,78133	193
41,79200	195
41,80267	197
41,81333	195
41,82400	199
41,83467	207
41,84533	220
41,85600	219
41,86667	235
41,87733	238
41,88800	234
41,89867	239
41,90933	243
41,92000	249
41,93067	246
41,94133	263
41,95200	270
41,96267	274
41,97333	282
41,98400	283
41,99467	291
42,00533	296
42,01600	297
42,02667	305
42,03733	304
42,04800	310
42,05867	304
42,06933	313
42,08000	314
42,09067	314
42,10133	321
42,11200	319
42,12267	327
42,13333	328
42,14400	330
42,15467	337
42,16533	338
42,17600	334
42,18667	348
42,19733	347
42,20800	343
42,21867	343
42,22933	350
42,24000	352
42,25067	354
42,26133	354
42,27200	357
42,28267	351
42,29333	355
42,30400	355
42,31467	355
42,32533	353
42,33600	356
42,34667	354
42,35733	351
42,36800	363
42,37867	366
42,38933	367
42,40000	364
42,41067	355
42,42133	353
42,43200	353
42,44267	359
42,45333	364
42,46400	370
42,47467	365
42,48533	362
42,49600	364
42,50667	374
42,51733	375
42,52800	371
42,53867	370
42,54933	371
42,56000	366
42,57067	369
42,58133	366
42,59200	365
42,60267	367
42,61333	374
42,62400	373
42,63467	374
42,64533	384
42,65600	378
42,66667	376
42,67733	380
42,68800	378
42,69867	371
42,70933	365
42,72000	366
42,73067	373
42,74133	370
42,75200	368
42,76267	364
42,77333	358
42,78400	357
42,79467	360
42,80533	366
42,81600	355
42,82667	355
42,83733	354
42,84800	350
42,85867	356
42,86933	353
42,88000	350
42,89067	352
42,90133	346
42,91200	349
42,92267	353
42,93333	358
42,94400	353
42,95467	358
42,96533	353
42,97600	352
42,98667	355
42,99733	350
43,00800	355
43,01867	365
43,02933	359
43,04000	354
43,05067	359
43,06133	356
43,07200	364
43,08267	360
43,09333	354
43,10400	361
43,11467	353
43,12533	363
43,13600	365
43,14667	360
43,15733	358
43,16800	352
43,17867	353
43,18933	353
43,20000	360
43,21067	362
43,22133	352
43,23200	355
43,24267	353
43,25333	349
43,26400	352
43,27467	349
43,28533	354
43,29600	351
43,30667	341
43,31733	351
43,32800	345
43,33867	347
43,34933	352
43,36000	355
43,37067	356
43,38133	357
43,39200	351
43,40267	348
43,41333	348
43,42400	348
43,43467	353
43,44533	356
43,45600	339
43,46667	340
43,47733	350
43,48800	349
43,49867	348
43,50933	340
43,52000	339
43,53067	344
43,54133	344
43,55200	344
43,56267	345
43,57333	338
43,58400	340
43,59467	337
43,60533	338
43,61600	349
43,62667	350
43,63733	342
43,64800	344
43,65867	340
43,66933	349
43,68000	343
43,69067	341
43,70133	340
43,71200	340
43,72267	341
43,73333	341
43,74400	346
43,75467	345
43,76533	343
43,77600	344
43,78667	342
43,79733	335
43,80800	343
43,81867	347
43,82933	340
43,84000	339
43,85067	339
43,86133	333
43,87200	334
43,88267	337
43,89333	336
43,90400	337
43,91467	335
43,92533	332
43,93600	342
43,94667	339
43,95733	343
43,96800	342
43,97867	333
43,98933	331
44,00000	334
44,01067	341
44,02133	337
44,03200	338
44,04267	339
44,05333	337
44,06400	337
44,07467	332
44,08533	329
44,09600	335
44,10667	338
44,11733	340
44,12800	339
44,13867	340
44,14933	329
44,16000	329
44,17067	332
44,18133	330
44,19200	341
44,20267	346
44,21333	344
44,22400	334
44,23467	332
44,24533	336
44,25600	333
44,26667	330
44,27733	345
44,28800	337
44,29867	334
44,30933	331
44,32000	335
44,33067	343
44,34133	341
44,35200	334
44,36267	332
44,37333	333
44,38400	335
44,39467	330
44,40533	339
44,41600	335
44,42667	334
44,43733	331
44,44800	330
44,45867	334
44,46933	329
44,48000	329
44,49067	329
44,50133	336
44,51200	339
44,52267	338
44,53333	330
44,54400	331
44,55467	325
44,56533	316
44,57600	323
44,58667	316
44,59733	311
44,60800	315
44,61867	320
44,62933	320
44,64000	316
44,65067	319
44,66133	322
44,67200	325
44,68267	321
44,69333	323
44,70400	319
44,71467	324
44,72533	319
44,73600	315
44,74667	316
44,75733	324
44,76800	323
44,77867	322
44,78933	326
44,80000	319
44,81067	321
44,82133	316
44,83200	321
44,84267	323
44,85333	331
44,86400	323
44,87467	315
44,88533	315
44,89600	321
44,90667	332
44,91733	327
44,92800	319
44,93867	319
44,94933	317
44,96000	320
44,97067	329
44,98133	322
44,99200	324
45,00267	324
45,01333	323
45,02400	329
45,03467	329
45,04533	328
45,05600	326
45,06667	327
45,07733	335
45,08800	339
45,09867	331
45,10933	326
45,12000	327
45,13067	333
45,14133	333
45,15200	328
45,16267	324
45,17333	318
45,18400	324
45,19467	332
45,20533	323
45,21600	327
45,22667	333
45,23733	327
45,24800	324
45,25867	326
45,26933	326
45,28000	325
45,29067	314
45,30133	314
45,31200	318
45,32267	326
45,33333	328
45,34400	324
45,35467	321
45,36533	324
45,37600	319
45,38667	316
45,39733	315
45,40800	315
45,41867	325
45,42933	321
45,44000	323
45,45067	321
45,46133	317
45,47200	322
45,48267	323
45,49333	322
45,50400	315
45,51467	312
45,52533	314
45,53600	322
45,54667	319
45,55733	322
45,56800	321
45,57867	325
45,58933	323
45,60000	326
45,61067	323
45,62133	320
45,63200	319
45,64267	318
45,65333	321
45,66400	324
45,67467	324
45,68533	330
45,69600	334
45,70667	321
45,71733	315
45,72800	315
45,73867	319
45,74933	326
45,76000	317
45,77067	312
45,78133	315
45,79200	314
45,80267	322
45,81333	322
45,82400	323
45,83467	324
45,84533	323
45,85600	318
45,86667	320
45,87733	322
45,88800	323
45,89867	326
45,90933	331
45,92000	329
45,93067	327
45,94133	320
45,95200	313
45,96267	321
45,97333	321
45,98400	325
45,99467	320
46,00533	321
46,01600	328
46,02667	323
46,03733	323
46,04800	322
46,05867	320
46,06933	323
46,08000	318
46,09067	321
46,10133	321
46,11200	325
46,12267	321
46,13333	323
46,14400	325
46,15467	316
46,16533	318
46,17600	314
46,18667	322
46,19733	318
46,20800	314
46,21867	316
46,22933	313
46,24000	310
46,25067	313
46,26133	307
46,27200	300
46,28267	306
46,29333	311
46,30400	303
46,31467	312
46,32533	316
46,33600	312
46,34667	305
46,35733	305
46,36800	301
46,37867	301
46,38933	295
46,40000	300
46,41067	301
46,42133	300
46,43200	300
46,44267	306
46,45333	301
46,46400	304
46,47467	300
46,48533	303
46,49600	305
46,50667	295
46,51733	296
46,52800	302
46,53867	306
46,54933	308
46,56000	308
46,57067	303
46,58133	310
46,59200	298
46,60267	302
46,61333	300
46,62400	296
46,63467	302
46,64533	304
46,65600	301
46,66667	302
46,67733	300
46,68800	293
46,69867	297
46,70933	298
46,72000	302
46,73067	296
46,74133	297
46,75200	298
46,76267	302
46,77333	299
46,78400	300
46,79467	300
46,80533	305
46,81600	301
46,82667	297
46,83733	301
46,84800	296
46,85867	293
46,86933	285
46,88000	290
46,89067	293
46,90133	289
46,91200	294
46,92267	296
46,93333	290
46,94400	288
46,95467	288
46,96533	289
46,97600	283
46,98667	286
46,99733	289
47,00800	289
47,01867	289
47,02933	298
47,04000	298
47,05067	292
47,06133	289
47,07200	293
47,08267	293
47,09333	283
47,10400	285
47,11467	284
47,12533	282
47,13600	276
47,14667	279
47,15733	289
47,16800	287
47,17867	287
47,18933	291
47,20000	284
47,21067	282
47,22133	278
47,23200	285
47,24267	285
47,25333	285
47,26400	285
47,27467	278
47,28533	283
47,29600	279
47,30667	281
47,31733	281
47,32800	281
47,33867	286
47,34933	276
47,36000	280
47,37067	284
47,38133	288
47,39200	284
47,40267	281
47,41333	282
47,42400	286
47,43467	285
47,44533	275
47,45600	288
47,46667	287
47,47733	289
47,48800	285
47,49867	284
47,50933	279
47,52000	279
47,53067	279
47,54133	280
47,55200	276
47,56267	286
47,57333	281
47,58400	282
47,59467	277
47,60533	274
47,61600	280
47,62667	276
47,63733	283
47,64800	283
47,65867	281
47,66933	279
47,68000	282
47,69067	279
47,70133	277
47,71200	276
47,72267	272
47,73333	282
47,74400	275
47,75467	266
47,76533	273
47,77600	267
47,78667	274
47,79733	270
47,80800	270
47,81867	270
47,82933	274
47,84000	269
47,85067	271
47,86133	270
47,87200	271
47,88267	271
47,89333	275
47,90400	278
47,91467	281
47,92533	274
47,93600	274
47,94667	270
47,95733	272
47,96800	269
47,97867	273
47,98933	278
48,00000	272
48,01067	274
48,02133	278
48,03200	270
48,04267	273
48,05333	274
48,06400	280
48,07467	274
48,08533	274
48,09600	269
48,10667	264
48,11733	268
48,12800	264
48,13867	268
48,14933	270
48,16000	280
48,17067	273
48,18133	273
48,19200	273
48,20267	273
48,21333	264
48,22400	264
48,23467	259
48,24533	266
48,25600	258
48,26667	255
48,27733	265
48,28800	260
48,29867	259
48,30933	259
48,32000	261
48,33067	269
48,34133	264
48,35200	263
48,36267	258
48,37333	261
48,38400	261
48,39467	260
48,40533	257
48,41600	255
48,42667	261
48,43733	256
48,44800	260
48,45867	258
48,46933	262
48,48000	256
48,49067	257
48,50133	250
48,51200	256
48,52267	260
48,53333	258
48,54400	258
48,55467	257
48,56533	252
48,57600	249
48,58667	252
48,59733	252
48,60800	249
48,61867	261
48,62933	256
48,64000	258
48,65067	256
48,66133	254
48,67200	255
48,68267	253
48,69333	254
48,70400	259
48,71467	260
48,72533	252
48,73600	246
48,74667	253
48,75733	251
48,76800	253
48,77867	252
48,78933	262
48,80000	252
48,81067	255
48,82133	260
48,83200	263
48,84267	263
48,85333	253
48,86400	258
48,87467	259
48,88533	254
48,89600	254
48,90667	257
48,91733	252
48,92800	246
48,93867	250
48,94933	241
48,96000	241
48,97067	243
48,98133	249
48,99200	245
49,00267	250
49,01333	249
49,02400	246
49,03467	235
49,04533	241
49,05600	243
49,06667	249
49,07733	255
49,08800	254
49,09867	249
49,10933	250
49,12000	242
49,13067	249
49,14133	248
49,15200	244
49,16267	248
49,17333	248
49,18400	245
49,19467	249
49,20533	247
49,21600	249
49,22667	243
49,23733	248
49,24800	246
49,25867	245
49,26933	244
49,28000	240
49,29067	245
49,30133	247
49,31200	249
49,32267	244
49,33333	249
49,34400	247
49,35467	247
49,36533	248
49,37600	249
49,38667	247
49,39733	241
49,40800	242
49,41867	236
49,42933	241
49,44000	245
49,45067	247
49,46133	245
49,47200	245
49,48267	238
49,49333	243
49,50400	244
49,51467	243
49,52533	240
49,53600	241
49,54667	241
49,55733	240
49,56800	236
49,57867	236
49,58933	244
49,60000	245
49,61067	247
49,62133	236
49,63200	245
49,64267	252
49,65333	248
49,66400	245
49,67467	244
49,68533	240
49,69600	236
49,70667	234
49,71733	239
49,72800	238
49,73867	235
49,74933	232
49,76000	236
49,77067	242
49,78133	237
49,79200	241
49,80267	238
49,81333	236
49,82400	240
49,83467	242
49,84533	237
49,85600	238
49,86667	245
49,87733	243
49,88800	242
49,89867	240
49,90933	242
49,92000	236
49,93067	240
49,94133	241
49,95200	242
49,96267	250
49,97333	243
49,98400	239
49,99467	238
50,00533	243
50,01600	246


