[Header]
Application Name	LabSolutions
Version	5.73
Data File Name	C:\Users\Public\DADOS\Ricardo borges\RMBorges\26.02.25\MATE 1.lcd
Output Date	27/02/2025
Output Time	05:35:24

[File Information]
Type	Data File
Generated	27/02/2025 04:44:57
Generated by	System Administrator
Modified	27/02/2025 05:35:24
Modified by	System Administrator

[Sample Information]
Operator Name	System Administrator
Acquired	27/02/2025 04:45:22
Sample Type	0:Unknown
Level	0
Sample Name	MATE 1
Sample ID	MATE 1
ISTD Amount1	1
ISTD Amount2	1
ISTD Amount3	1
ISTD Amount4	1
ISTD Amount5	1
ISTD Amount6	1
ISTD Amount7	1
ISTD Amount8	1
ISTD Amount9	1
ISTD Amount10	1
ISTD Amount11	1
ISTD Amount12	1
ISTD Amount13	1
ISTD Amount14	1
ISTD Amount15	1
ISTD Amount16	1
ISTD Amount17	1
ISTD Amount18	1
ISTD Amount19	1
ISTD Amount20	1
ISTD Amount21	1
ISTD Amount22	1
ISTD Amount23	1
ISTD Amount24	1
ISTD Amount25	1
ISTD Amount26	1
ISTD Amount27	1
ISTD Amount28	1
ISTD Amount29	1
ISTD Amount30	1
ISTD Amount31	1
ISTD Amount32	1
Sample Amount	1
Dilution Factor	1
Vial#	25
Injection Volume	10

[Original Files]
Data File	C:\Users\Public\DADOS\Ricardo borges\RMBorges\26.02.25\MATE 1.lcd
Method File	C:\Users\Public\MÉTODOS\MÉTODOS HPLC AUTOMÁTICO\RICARDO BORGES\RMBorges\sciffee\experimental 1 - pool.lcm
Batch File	C:\Users\Public\DADOS\Ricardo borges\RMBorges\26.02.25\BATCH_RM_MIX POOL_26.02.2025.lcb
Report Format File	C:\LabSolutions\System\Default.lsr

[File Description]


[Configuration]
Instrument Name	HPLC analítico (automático)
Instrument #	1
Line #	1
# of Detectors	1
Detector ID	PDA
Detector Name	PDA
# of Channels	1

[Peak Table(PDA-Ch1)]
# of Peaks	91
Peak#	R.Time	I.Time	F.Time	Area	Height	A/H	Conc.	Mark	ID#	Name	k'	Plate #	Plate Ht.	Tailing	Resolution	Sep.Factor	Area Ratio	Height Ratio	Conc. %	Norm Conc.
1	1,580	1,152	1,696	163446	13350	12,243	0,000	   			0,000	292	513,563	0,000	0,000	0,000	0	0	0,000	0,000
2	1,762	1,696	1,803	119530	26215	4,560	0,000	 V 			0,115	712	210,814	0,000	0,572	0,000	0	0	0,000	0,000
3	1,839	1,803	1,995	212254	22705	9,348	0,000	 V 			0,164	72	2082,775	0,000	0,138	1,430	0	0	0,000	0,000
4	2,087	1,995	2,421	605599	48272	12,546	0,000	 V 			0,321	275	544,746	0,000	0,361	1,953	0	0	0,000	0,000
5	2,469	2,421	2,571	73629	8887	8,285	0,000	 V 			0,562	33	4528,224	0,000	0,344	1,754	0	0	0,000	0,000
6	2,626	2,571	2,741	69724	7738	9,010	0,000	 V 			0,662	109	1373,407	0,000	0,116	1,177	0	0	0,000	0,000
7	2,888	2,741	3,264	478269	47714	10,024	0,000	 V 			0,828	2529	59,304	0,000	0,425	1,251	0	0	0,000	0,000
8	3,395	3,264	3,477	69601	6243	11,148	0,000	 V 			1,148	390	384,643	0,000	1,104	1,387	0	0	0,000	0,000
9	3,513	3,477	3,616	31757	5391	5,890	0,000	 V 			1,223	653	229,688	0,000	0,191	1,065	0	0	0,000	0,000
10	3,829	3,616	3,968	85160	5777	14,741	0,000	 V 			1,423	966	155,212	0,000	0,606	1,163	0	0	0,000	0,000
11	4,123	3,968	4,331	376096	44323	8,485	0,000	 V 			1,609	5261	28,514	0,000	0,817	1,131	0	0	0,000	0,000
12	4,469	4,331	4,576	79997	7114	11,244	0,000	 V 			1,829	1691	88,704	0,000	1,046	1,136	0	0	0,000	0,000
13	4,674	4,576	4,853	81410	8196	9,933	0,000	 V 			1,958	3229	46,448	0,000	0,536	1,071	0	0	0,000	0,000
14	5,007	4,853	5,195	35589	2027	17,554	0,000	 V 			2,169	539	278,218	0,000	0,559	1,108	0	0	0,000	0,000
15	5,488	5,195	5,579	68646	4846	14,165	0,000	 V 			2,474	1247	120,283	0,000	0,649	1,141	0	0	0,000	0,000
16	5,621	5,579	5,867	43168	3945	10,942	0,000	 V 			2,558	15	10140,046	0,000	0,041	1,034	0	0	0,000	0,000
17	6,035	5,867	6,176	92315	9223	10,009	0,000	 V 			2,820	7321	20,488	0,000	0,135	1,102	0	0	0,000	0,000
18	6,419	6,176	6,677	2891717	264413	10,936	0,000	 V 			3,063	7375	20,340	1,116	1,322	1,086	0	0	0,000	0,000
19	6,847	6,677	7,563	744767	47641	15,633	0,000	 V 			3,333	5534	27,106	0,000	1,283	1,088	0	0	0,000	0,000
20	7,847	7,563	7,925	44307	2501	17,716	0,000	 V 			3,966	1154	130,025	0,000	1,547	1,190	0	0	0,000	0,000
21	8,015	7,925	8,139	28469	2718	10,474	0,000	 V 			4,073	2811	53,363	0,000	0,221	1,027	0	0	0,000	0,000
22	8,601	8,139	8,747	86631	2823	30,691	0,000	 V 			4,444	682	219,912	0,000	0,610	1,091	0	0	0,000	0,000
23	8,990	8,747	9,184	78554	3944	19,919	0,000	 V 			4,690	2490	60,240	0,000	0,382	1,055	0	0	0,000	0,000
24	9,327	9,184	9,461	41599	2816	14,773	0,000	 V 			4,903	1223	122,620	0,000	0,377	1,045	0	0	0,000	0,000
25	9,729	9,461	9,824	119738	8823	13,571	0,000	 V 			5,157	4115	36,453	0,000	0,480	1,052	0	0	0,000	0,000
26	9,899	9,824	10,016	79386	8007	9,914	0,000	 V 			5,265	2443	61,393	0,000	0,242	1,021	0	0	0,000	0,000
27	10,131	10,016	10,197	70262	7106	9,888	0,000	 V 			5,412	1367	109,734	0,000	0,244	1,028	0	0	0,000	0,000
28	10,317	10,197	10,368	82568	8901	9,276	0,000	 V 			5,529	1075	139,484	0,000	0,158	1,022	0	0	0,000	0,000
29	10,473	10,368	10,827	159137	10701	14,871	0,000	 V 			5,628	5507	27,237	0,000	0,171	1,018	0	0	0,000	0,000
30	11,133	10,827	12,885	7109568	586198	12,128	0,000	SV 			6,046	19556	7,670	1,157	1,495	1,074	0	0	0,000	0,000
31	11,814	11,680	12,021	19829	1838	10,786	0,000	T  			6,477	24914	6,021	0,000	2,205	1,071	0	0	0,000	0,000
32	12,204	12,021	12,405	48253	4802	10,048	0,000	TV 			6,724	30217	4,964	0,000	1,346	1,038	0	0	0,000	0,000
33	12,678	12,427	12,875	39257	2767	14,188	0,000	T  			7,024	17949	8,357	0,901	1,437	1,045	0	0	0,000	0,000
34	13,286	12,885	14,016	3486124	205543	16,961	0,000	 V 			7,408	16437	9,126	2,681	1,532	1,055	0	0	0,000	0,000
35	14,221	14,016	14,549	517627	36642	14,127	0,000	 V 			8,000	30276	4,954	0,000	2,523	1,080	0	0	0,000	0,000
36	14,743	14,549	14,859	195006	14573	13,381	0,000	 V 			8,331	15096	9,937	0,000	1,295	1,041	0	0	0,000	0,000
37	15,004	14,859	15,179	216903	15695	13,820	0,000	 V 			8,496	14921	10,053	0,000	0,536	1,020	0	0	0,000	0,000
38	15,345	15,179	15,509	300819	26737	11,251	0,000	 V 			8,712	38883	3,858	0,000	0,851	1,025	0	0	0,000	0,000
39	15,647	15,509	15,829	172873	12270	14,089	0,000	 V 			8,903	16262	9,224	0,000	0,754	1,022	0	0	0,000	0,000
40	15,912	15,829	16,011	63920	6066	10,538	0,000	 V 			9,070	693	216,310	0,000	0,182	1,019	0	0	0,000	0,000
41	16,295	16,011	16,619	232738	7443	31,270	0,000	 V 			9,313	1619	92,646	0,000	0,190	1,027	0	0	0,000	0,000
42	16,885	16,619	17,195	235111	8719	26,965	0,000	 V 			9,686	3438	43,625	0,000	0,425	1,040	0	0	0,000	0,000
43	17,357	17,195	17,419	71149	5496	12,946	0,000	 V 			9,985	397	377,375	0,000	0,204	1,031	0	0	0,000	0,000
44	17,723	17,419	17,813	147701	7014	21,057	0,000	 V 			10,217	1010	148,584	0,000	0,128	1,023	0	0	0,000	0,000
45	17,896	17,813	17,984	68159	6737	10,118	0,000	 V 			10,326	107	1406,555	0,000	0,038	1,011	0	0	0,000	0,000
46	18,166	17,984	18,368	163956	7481	21,916	0,000	 V 			10,497	1330	112,805	0,000	0,060	1,017	0	0	0,000	0,000
47	18,487	18,368	18,571	85544	7260	11,782	0,000	 V 			10,700	811	184,927	0,000	0,140	1,019	0	0	0,000	0,000
48	18,745	18,571	18,869	134014	8096	16,553	0,000	 V 			10,864	2565	58,481	0,000	0,127	1,015	0	0	0,000	0,000
49	19,196	18,869	19,435	298905	10395	28,754	0,000	 V 			11,149	3285	45,658	0,000	0,320	1,026	0	0	0,000	0,000
50	19,648	19,435	20,096	1000879	80165	12,485	0,000	 V 			11,435	69670	2,153	0,000	0,551	1,026	0	0	0,000	0,000
51	20,369	20,096	20,651	1482192	130526	11,356	0,000	 V 			11,891	77855	1,927	0,000	2,445	1,040	0	0	0,000	0,000
52	20,724	20,651	20,843	93026	8350	11,141	0,000	 V 			12,116	427	351,638	0,000	0,165	1,019	0	0	0,000	0,000
53	21,048	20,843	21,237	205190	10014	20,490	0,000	 V 			12,321	6931	21,642	0,000	0,129	1,017	0	0	0,000	0,000
54	21,584	21,237	21,877	888294	61551	14,432	0,000	 V 			12,660	63758	2,353	0,000	0,792	1,028	0	0	0,000	0,000
55	22,071	21,877	22,208	151743	8228	18,443	0,000	 V 			12,968	1778	84,354	0,000	0,400	1,024	0	0	0,000	0,000
56	22,284	22,208	22,389	72051	6830	10,550	0,000	 V 			13,103	669	224,328	0,000	0,077	1,010	0	0	0,000	0,000
57	22,443	22,389	22,528	52233	6438	8,113	0,000	 V 			13,204	754	198,821	0,000	0,047	1,008	0	0	0,000	0,000
58	22,757	22,528	23,115	2350976	211598	11,111	0,000	 V 			13,403	97628	1,536	1,223	0,177	1,015	0	0	0,000	0,000
59	23,240	23,115	23,424	111747	7099	15,742	0,000	 V 			13,708	10471	14,326	0,000	0,805	1,023	0	0	0,000	0,000
60	23,620	23,424	23,915	141099	6767	20,851	0,000	 V 			13,949	22042	6,805	0,000	0,492	1,018	0	0	0,000	0,000
61	24,148	23,915	24,491	234234	13877	16,879	0,000	 V 			14,283	58981	2,543	0,000	1,021	1,024	0	0	0,000	0,000
62	24,641	24,491	24,800	60307	3962	15,222	0,000	 V 			14,595	18786	7,985	0,000	0,883	1,022	0	0	0,000	0,000
63	25,111	24,800	25,376	157431	8836	17,818	0,000	 V 			14,892	50239	2,986	0,000	0,805	1,020	0	0	0,000	0,000
64	25,590	25,376	25,664	48149	4185	11,506	0,000	 V 			15,196	17197	8,723	0,000	0,780	1,020	0	0	0,000	0,000
65	25,764	25,664	26,475	92508	4680	19,769	0,000	 V 			15,305	24993	6,002	0,000	0,242	1,007	0	0	0,000	0,000
66	26,970	26,613	27,264	58102	3734	15,561	0,000	   			16,069	66805	2,245	0,984	2,256	1,050	0	0	0,000	0,000
67	27,414	27,275	27,573	19673	2006	9,806	0,000	   			16,350	157738	0,951	0,000	1,281	1,017	0	0	0,000	0,000
68	27,678	27,573	27,883	11942	1179	10,126	0,000	 V 			16,517	95839	1,565	0,000	0,832	1,010	0	0	0,000	0,000
69	28,300	28,181	28,491	2539	285	8,900	0,000	   			16,911	191105	0,785	1,305	2,020	1,024	0	0	0,000	0,000
70	28,633	28,523	28,715	3219	368	8,759	0,000	   			17,122	0	0,000	0,000	0,000	1,012	0	0	0,000	0,000
71	28,789	28,715	29,248	8995	526	17,088	0,000	 V 			17,220	27649	5,425	0,000	0,000	1,006	0	0	0,000	0,000
72	29,483	29,301	29,557	3860	391	9,869	0,000	   			17,659	0	0,000	0,000	0,000	1,025	0	0	0,000	0,000
73	29,628	29,557	30,037	6359	468	13,577	0,000	 V 			17,751	21933	6,839	0,000	0,000	1,005	0	0	0,000	0,000
74	30,592	30,496	30,763	1601	113	14,193	0,000	   			18,361	37681	3,981	0,000	1,347	1,034	0	0	0,000	0,000
75	30,882	30,763	31,093	4521	432	10,465	0,000	 V 			18,545	148692	1,009	0,000	0,610	1,010	0	0	0,000	0,000
76	31,176	31,093	31,520	1361	91	15,031	0,000	   			18,731	100707	1,489	2,710	0,825	1,010	0	0	0,000	0,000
77	32,631	32,459	32,747	8991	982	9,152	0,000	   			19,652	286586	0,523	0,859	4,569	1,049	0	0	0,000	0,000
78	33,958	32,789	34,005	359601	7948	45,246	0,000	   			20,491	5070	29,583	0,000	1,234	1,043	0	0	0,000	0,000
79	34,074	34,005	34,144	60870	7519	8,096	0,000	 V 			20,565	400	375,216	0,000	0,027	1,004	0	0	0,000	0,000
80	34,283	34,144	34,325	75646	7099	10,656	0,000	 V 			20,697	3141	47,752	0,000	0,045	1,006	0	0	0,000	0,000
81	34,488	34,325	34,592	113136	7595	14,897	0,000	 V 			20,827	10607	14,142	0,000	0,108	1,006	0	0	0,000	0,000
82	35,062	34,592	35,413	1060092	121325	8,738	0,000	 V 			21,190	725245	0,207	0,000	0,763	1,017	0	0	0,000	0,000
83	35,481	35,413	35,552	138296	21023	6,578	0,000	 V 			21,456	234526	0,640	0,000	1,834	1,013	0	0	0,000	0,000
84	35,587	35,552	35,733	120279	14935	8,054	0,000	 V 			21,523	87649	1,711	0,000	0,273	1,003	0	0	0,000	0,000
85	35,843	35,733	35,979	129700	10544	12,300	0,000	 V 			21,684	50908	2,947	0,000	0,458	1,008	0	0	0,000	0,000
86	36,032	35,979	36,096	47494	6966	6,818	0,000	 V 			21,804	2044	73,395	0,000	0,099	1,006	0	0	0,000	0,000
87	36,329	36,096	36,480	148750	7904	18,819	0,000	 V 			21,992	16618	9,026	0,000	0,137	1,009	0	0	0,000	0,000
88	36,778	36,480	36,917	99485	3865	25,737	0,000	 V 			22,276	504	297,506	0,000	0,117	1,013	0	0	0,000	0,000
89	37,041	36,917	37,152	33332	3137	10,624	0,000	 V 			22,442	116366	1,289	0,000	0,075	1,007	0	0	0,000	0,000
90	37,225	37,152	37,376	10797	1325	8,150	0,000	 V 			22,559	24444	6,137	0,000	0,266	1,005	0	0	0,000	0,000
91	38,910	38,656	39,989	1058208	36777	28,774	0,000	   			23,626	349417	0,429	3,032	2,772	1,047	0	0	0,000	0,000

[Compound Results(PDA)]
# of IDs	0

[PDA Multi Chromatogram(Ch1)]
# of Points	      4689
Interval(msec)	640
Start Time(min)	0
End Time(min)	50,0053
Intensity Units	mAU
Intensity Multiplier	1
Type	MultiChrom
Wavelength(nm)	254
Bandwidth(nm)	4
R.Time (min)	Intensity
0,00000	0
0,01067	0
0,02133	0
0,03200	0
0,04267	0
0,05333	0
0,06400	0
0,07467	0
0,08533	0
0,09600	0
0,10667	4
0,11733	5
0,12800	3
0,13867	-5
0,14933	-0
0,16000	2
0,17067	1
0,18133	6
0,19200	4
0,20267	-5
0,21333	-10
0,22400	-6
0,23467	-7
0,24533	-12
0,25600	-4
0,26667	-8
0,27733	-9
0,28800	-8
0,29867	-8
0,30933	-6
0,32000	-2
0,33067	-2
0,34133	-12
0,35200	-12
0,36267	-14
0,37333	-13
0,38400	-20
0,39467	-5
0,40533	-7
0,41600	-13
0,42667	-5
0,43733	-4
0,44800	-9
0,45867	-4
0,46933	-5
0,48000	-5
0,49067	6
0,50133	-4
0,51200	-4
0,52267	-11
0,53333	-9
0,54400	-4
0,55467	-9
0,56533	-6
0,57600	-8
0,58667	-10
0,59733	-11
0,60800	-7
0,61867	-3
0,62933	-7
0,64000	-12
0,65067	-11
0,66133	-15
0,67200	-14
0,68267	-17
0,69333	-5
0,70400	-7
0,71467	-15
0,72533	-17
0,73600	-6
0,74667	-19
0,75733	-15
0,76800	-17
0,77867	-11
0,78933	-13
0,80000	-16
0,81067	-12
0,82133	-7
0,83200	-13
0,84267	-10
0,85333	-14
0,86400	-17
0,87467	-14
0,88533	-17
0,89600	-15
0,90667	-8
0,91733	-9
0,92800	-8
0,93867	-4
0,94933	-5
0,96000	-6
0,97067	-0
0,98133	-9
0,99200	-3
1,00267	-6
1,01333	-4
1,02400	6
1,03467	-1
1,04533	3
1,05600	6
1,06667	-2
1,07733	5
1,08800	2
1,09867	6
1,10933	7
1,12000	10
1,13067	11
1,14133	14
1,15200	17
1,16267	37
1,17333	59
1,18400	95
1,19467	123
1,20533	147
1,21600	194
1,22667	221
1,23733	265
1,24800	319
1,25867	370
1,26933	432
1,28000	500
1,29067	576
1,30133	666
1,31200	786
1,32267	928
1,33333	1082
1,34400	1258
1,35467	1438
1,36533	1609
1,37600	1795
1,38667	1981
1,39733	2207
1,40800	2464
1,41867	2750
1,42933	3099
1,44000	3525
1,45067	4041
1,46133	4715
1,47200	5555
1,48267	6436
1,49333	7245
1,50400	7998
1,51467	8769
1,52533	9659
1,53600	10683
1,54667	11780
1,55733	12770
1,56800	13448
1,57867	13706
1,58933	13555
1,60000	13126
1,61067	12639
1,62133	12243
1,63200	11918
1,64267	11572
1,65333	11029
1,66400	10205
1,67467	9227
1,68533	8306
1,69600	7712
1,70667	7743
1,71733	8987
1,72800	12520
1,73867	18721
1,74933	24589
1,76000	26715
1,77067	25532
1,78133	23360
1,79200	21893
1,80267	21612
1,81333	22130
1,82400	22822
1,83467	23267
1,84533	23244
1,85600	22749
1,86667	21910
1,87733	20888
1,88800	19802
1,89867	18812
1,90933	18045
1,92000	17576
1,93067	17327
1,94133	17092
1,95200	16657
1,96267	16017
1,97333	15291
1,98400	14656
1,99467	14323
2,00533	14533
2,01600	15695
2,02667	18546
2,03733	23674
2,04800	30875
2,05867	38681
2,06933	45134
2,08000	48703
2,09067	49030
2,10133	46761
2,11200	43075
2,12267	39138
2,13333	35784
2,14400	33412
2,15467	31935
2,16533	31000
2,17600	30187
2,18667	29227
2,19733	28114
2,20800	26964
2,21867	25963
2,22933	25099
2,24000	24249
2,25067	23245
2,26133	22022
2,27200	20619
2,28267	19139
2,29333	17676
2,30400	16272
2,31467	14950
2,32533	13779
2,33600	12804
2,34667	12026
2,35733	11399
2,36800	10901
2,37867	10492
2,38933	10133
2,40000	9856
2,41067	9683
2,42133	9632
2,43200	9673
2,44267	9767
2,45333	9879
2,46400	9947
2,47467	9942
2,48533	9847
2,49600	9675
2,50667	9439
2,51733	9179
2,52800	8924
2,53867	8685
2,54933	8503
2,56000	8384
2,57067	8350
2,58133	8409
2,59200	8532
2,60267	8700
2,61333	8849
2,62400	8923
2,63467	8888
2,64533	8728
2,65600	8473
2,66667	8164
2,67733	7844
2,68800	7563
2,69867	7313
2,70933	7121
2,72000	6988
2,73067	6909
2,74133	6882
2,75200	6902
2,76267	6980
2,77333	7189
2,78400	7665
2,79467	8704
2,80533	10717
2,81600	14142
2,82667	19189
2,83733	25706
2,84800	32961
2,85867	39875
2,86933	45317
2,88000	48481
2,89067	49107
2,90133	47439
2,91200	44025
2,92267	39572
2,93333	34693
2,94400	29953
2,95467	25659
2,96533	22042
2,97600	19106
2,98667	16828
2,99733	15036
3,00800	13613
3,01867	12414
3,02933	11363
3,04000	10443
3,05067	9656
3,06133	9004
3,07200	8500
3,08267	8130
3,09333	7874
3,10400	7687
3,11467	7561
3,12533	7468
3,13600	7384
3,14667	7313
3,15733	7242
3,16800	7156
3,17867	7065
3,18933	6953
3,20000	6848
3,21067	6726
3,22133	6613
3,23200	6520
3,24267	6437
3,25333	6382
3,26400	6351
3,27467	6355
3,28533	6388
3,29600	6454
3,30667	6562
3,31733	6701
3,32800	6892
3,33867	7118
3,34933	7366
3,36000	7604
3,37067	7804
3,38133	7961
3,39200	8037
3,40267	8011
3,41333	7900
3,42400	7713
3,43467	7479
3,44533	7235
3,45600	7012
3,46667	6851
3,47733	6809
3,48800	6894
3,49867	7099
3,50933	7279
3,52000	7245
3,53067	6890
3,54133	6331
3,55200	5725
3,56267	5193
3,57333	4778
3,58400	4483
3,59467	4286
3,60533	4173
3,61600	4132
3,62667	4133
3,63733	4177
3,64800	4237
3,65867	4317
3,66933	4418
3,68000	4556
3,69067	4716
3,70133	4893
3,71200	5113
3,72267	5374
3,73333	5660
3,74400	5982
3,75467	6316
3,76533	6649
3,77600	6985
3,78667	7297
3,79733	7558
3,80800	7745
3,81867	7875
3,82933	7915
3,84000	7869
3,85067	7744
3,86133	7571
3,87200	7346
3,88267	7086
3,89333	6826
3,90400	6575
3,91467	6350
3,92533	6145
3,93600	5971
3,94667	5834
3,95733	5734
3,96800	5686
3,97867	5719
3,98933	5884
4,00000	6269
4,01067	7015
4,02133	8338
4,03200	10472
4,04267	13626
4,05333	17876
4,06400	23163
4,07467	29113
4,08533	35147
4,09600	40510
4,10667	44507
4,11733	46632
4,12800	46694
4,13867	44830
4,14933	41437
4,16000	37027
4,17067	32178
4,18133	27334
4,19200	22875
4,20267	18979
4,21333	15738
4,22400	13133
4,23467	11094
4,24533	9560
4,25600	8407
4,26667	7575
4,27733	6976
4,28800	6556
4,29867	6266
4,30933	6083
4,32000	5993
4,33067	5970
4,34133	6028
4,35200	6155
4,36267	6358
4,37333	6641
4,38400	6989
4,39467	7408
4,40533	7863
4,41600	8333
4,42667	8793
4,43733	9193
4,44800	9508
4,45867	9695
4,46933	9760
4,48000	9694
4,49067	9508
4,50133	9208
4,51200	8832
4,52267	8421
4,53333	7994
4,54400	7620
4,55467	7315
4,56533	7132
4,57600	7100
4,58667	7227
4,59733	7522
4,60800	8000
4,61867	8593
4,62933	9253
4,64000	9901
4,65067	10454
4,66133	10841
4,67200	11003
4,68267	10926
4,69333	10626
4,70400	10143
4,71467	9524
4,72533	8829
4,73600	8112
4,74667	7429
4,75733	6809
4,76800	6265
4,77867	5802
4,78933	5433
4,80000	5128
4,81067	4891
4,82133	4720
4,83200	4598
4,84267	4521
4,85333	4486
4,86400	4494
4,87467	4519
4,88533	4569
4,89600	4623
4,90667	4680
4,91733	4758
4,92800	4830
4,93867	4896
4,94933	4946
4,96000	4994
4,97067	5040
4,98133	5069
4,99200	5077
5,00267	5099
5,01333	5096
5,02400	5091
5,03467	5077
5,04533	5060
5,05600	5033
5,06667	4991
5,07733	4949
5,08800	4897
5,09867	4851
5,10933	4809
5,12000	4760
5,13067	4701
5,14133	4648
5,15200	4605
5,16267	4570
5,17333	4539
5,18400	4529
5,19467	4522
5,20533	4528
5,21600	4533
5,22667	4562
5,23733	4601
5,24800	4647
5,25867	4679
5,26933	4734
5,28000	4781
5,29067	4842
5,30133	4900
5,31200	4974
5,32267	5060
5,33333	5173
5,34400	5295
5,35467	5455
5,36533	5650
5,37600	5869
5,38667	6129
5,39733	6405
5,40800	6714
5,41867	7031
5,42933	7344
5,44000	7632
5,45067	7885
5,46133	8089
5,47200	8221
5,48267	8296
5,49333	8299
5,50400	8233
5,51467	8120
5,52533	7975
5,53600	7819
5,54667	7684
5,55733	7559
5,56800	7487
5,57867	7450
5,58933	7456
5,60000	7477
5,61067	7497
5,62133	7503
5,63200	7470
5,64267	7388
5,65333	7268
5,66400	7106
5,67467	6904
5,68533	6695
5,69600	6478
5,70667	6278
5,71733	6086
5,72800	5910
5,73867	5758
5,74933	5623
5,76000	5509
5,77067	5411
5,78133	5332
5,79200	5258
5,80267	5194
5,81333	5126
5,82400	5064
5,83467	5020
5,84533	4980
5,85600	4948
5,86667	4943
5,87733	4964
5,88800	5042
5,89867	5187
5,90933	5424
5,92000	5781
5,93067	6277
5,94133	6901
5,95200	7658
5,96267	8523
5,97333	9465
5,98400	10429
5,99467	11322
6,00533	12094
6,01600	12678
6,02667	13029
6,03733	13109
6,04800	12921
6,05867	12511
6,06933	11918
6,08000	11187
6,09067	10390
6,10133	9572
6,11200	8790
6,12267	8075
6,13333	7457
6,14400	6943
6,15467	6546
6,16533	6277
6,17600	6145
6,18667	6186
6,19733	6455
6,20800	7024
6,21867	8019
6,22933	9625
6,24000	12077
6,25067	15707
6,26133	20895
6,27200	28062
6,28267	37630
6,29333	50069
6,30400	65567
6,31467	84278
6,32533	105849
6,33600	129851
6,34667	155254
6,35733	181006
6,36800	205569
6,37867	227635
6,38933	245830
6,40000	259141
6,41067	266835
6,42133	268603
6,43200	264529
6,44267	255060
6,45333	240968
6,46400	223278
6,47467	202983
6,48533	181263
6,49600	159066
6,50667	137432
6,51733	116973
6,52800	98304
6,53867	81664
6,54933	67272
6,56000	55042
6,57067	44898
6,58133	36598
6,59200	29917
6,60267	24626
6,61333	20479
6,62400	17263
6,63467	14809
6,64533	12985
6,65600	11676
6,66667	10837
6,67733	10431
6,68800	10483
6,69867	11044
6,70933	12182
6,72000	13997
6,73067	16526
6,74133	19800
6,75200	23724
6,76267	28136
6,77333	32811
6,78400	37455
6,79467	41757
6,80533	45522
6,81600	48513
6,82667	50620
6,83733	51831
6,84800	52170
6,85867	51715
6,86933	50588
6,88000	48915
6,89067	46839
6,90133	44465
6,91200	41915
6,92267	39283
6,93333	36652
6,94400	34078
6,95467	31601
6,96533	29260
6,97600	27074
6,98667	25060
6,99733	23212
7,00800	21550
7,01867	20052
7,02933	18718
7,04000	17550
7,05067	16537
7,06133	15658
7,07200	14915
7,08267	14286
7,09333	13769
7,10400	13329
7,11467	12958
7,12533	12621
7,13600	12311
7,14667	12006
7,15733	11694
7,16800	11363
7,17867	11024
7,18933	10678
7,20000	10333
7,21067	9979
7,22133	9636
7,23200	9303
7,24267	9003
7,25333	8732
7,26400	8482
7,27467	8272
7,28533	8093
7,29600	7943
7,30667	7814
7,31733	7716
7,32800	7633
7,33867	7561
7,34933	7505
7,36000	7449
7,37067	7414
7,38133	7369
7,39200	7323
7,40267	7277
7,41333	7226
7,42400	7179
7,43467	7128
7,44533	7089
7,45600	7046
7,46667	7008
7,47733	6972
7,48800	6938
7,49867	6908
7,50933	6878
7,52000	6850
7,53067	6830
7,54133	6809
7,55200	6809
7,56267	6801
7,57333	6808
7,58400	6809
7,59467	6826
7,60533	6838
7,61600	6849
7,62667	6861
7,63733	6881
7,64800	6906
7,65867	6915
7,66933	6935
7,68000	6947
7,69067	6971
7,70133	6993
7,71200	7030
7,72267	7062
7,73333	7103
7,74400	7165
7,75467	7232
7,76533	7304
7,77600	7389
7,78667	7480
7,79733	7567
7,80800	7652
7,81867	7724
7,82933	7782
7,84000	7819
7,85067	7822
7,86133	7803
7,87200	7764
7,88267	7717
7,89333	7659
7,90400	7611
7,91467	7578
7,92533	7573
7,93600	7597
7,94667	7652
7,95733	7731
7,96800	7835
7,97867	7942
7,98933	8045
8,00000	8134
8,01067	8172
8,02133	8169
8,03200	8125
8,04267	8038
8,05333	7907
8,06400	7754
8,07467	7589
8,08533	7436
8,09600	7296
8,10667	7180
8,11733	7106
8,12800	7065
8,13867	7063
8,14933	7097
8,16000	7145
8,17067	7216
8,18133	7289
8,19200	7361
8,20267	7427
8,21333	7477
8,22400	7512
8,23467	7533
8,24533	7541
8,25600	7554
8,26667	7566
8,27733	7578
8,28800	7607
8,29867	7656
8,30933	7718
8,32000	7793
8,33067	7877
8,34133	7967
8,35200	8055
8,36267	8141
8,37333	8233
8,38400	8300
8,39467	8362
8,40533	8407
8,41600	8453
8,42667	8469
8,43733	8487
8,44800	8489
8,45867	8496
8,46933	8501
8,48000	8499
8,49067	8502
8,50133	8513
8,51200	8522
8,52267	8545
8,53333	8565
8,54400	8604
8,55467	8630
8,56533	8671
8,57600	8702
8,58667	8717
8,59733	8741
8,60800	8738
8,61867	8721
8,62933	8696
8,64000	8649
8,65067	8616
8,66133	8561
8,67200	8507
8,68267	8462
8,69333	8413
8,70400	8370
8,71467	8341
8,72533	8335
8,73600	8323
8,74667	8315
8,75733	8336
8,76800	8362
8,77867	8401
8,78933	8461
8,80000	8538
8,81067	8627
8,82133	8716
8,83200	8832
8,84267	8931
8,85333	9046
8,86400	9157
8,87467	9270
8,88533	9380
8,89600	9490
8,90667	9602
8,91733	9709
8,92800	9814
8,93867	9910
8,94933	9994
8,96000	10054
8,97067	10113
8,98133	10157
8,99200	10171
9,00267	10145
9,01333	10098
9,02400	10022
9,03467	9925
9,04533	9792
9,05600	9654
9,06667	9500
9,07733	9328
9,08800	9157
9,09867	8987
9,10933	8828
9,12000	8672
9,13067	8539
9,14133	8427
9,15200	8337
9,16267	8278
9,17333	8239
9,18400	8233
9,19467	8260
9,20533	8315
9,21600	8401
9,22667	8507
9,23733	8631
9,24800	8749
9,25867	8878
9,26933	8996
9,28000	9085
9,29067	9177
9,30133	9234
9,31200	9283
9,32267	9310
9,33333	9308
9,34400	9304
9,35467	9271
9,36533	9244
9,37600	9217
9,38667	9182
9,39733	9138
9,40800	9112
9,41867	9072
9,42933	9044
9,44000	9022
9,45067	9007
9,46133	8998
9,47200	9000
9,48267	9000
9,49333	9016
9,50400	9035
9,51467	9059
9,52533	9090
9,53600	9144
9,54667	9220
9,55733	9327
9,56800	9476
9,57867	9692
9,58933	9965
9,60000	10298
9,61067	10712
9,62133	11201
9,63200	11749
9,64267	12335
9,65333	12936
9,66400	13545
9,67467	14117
9,68533	14635
9,69600	15060
9,70667	15370
9,71733	15565
9,72800	15635
9,73867	15583
9,74933	15422
9,76000	15189
9,77067	14905
9,78133	14619
9,79200	14346
9,80267	14143
9,81333	14013
9,82400	13972
9,83467	14028
9,84533	14162
9,85600	14353
9,86667	14569
9,87733	14766
9,88800	14902
9,89867	14954
9,90933	14910
9,92000	14745
9,93067	14490
9,94133	14151
9,95200	13757
9,96267	13345
9,97333	12948
9,98400	12603
9,99467	12356
10,00533	12194
10,01600	12150
10,02667	12212
10,03733	12367
10,04800	12592
10,05867	12870
10,06933	13174
10,08000	13482
10,09067	13757
10,10133	13979
10,11200	14137
10,12267	14220
10,13333	14236
10,14400	14192
10,15467	14100
10,16533	13979
10,17600	13864
10,18667	13779
10,19733	13738
10,20800	13770
10,21867	13893
10,22933	14100
10,24000	14369
10,25067	14688
10,26133	15044
10,27200	15390
10,28267	15693
10,29333	15950
10,30400	16115
10,31467	16179
10,32533	16154
10,33600	16077
10,34667	15969
10,35733	15856
10,36800	15776
10,37867	15779
10,38933	15877
10,40000	16087
10,41067	16387
10,42133	16755
10,43200	17148
10,44267	17536
10,45333	17854
10,46400	18048
10,47467	18102
10,48533	17980
10,49600	17688
10,50667	17220
10,51733	16624
10,52800	15907
10,53867	15146
10,54933	14374
10,56000	13635
10,57067	12956
10,58133	12374
10,59200	11887
10,60267	11509
10,61333	11223
10,62400	11039
10,63467	10925
10,64533	10865
10,65600	10844
10,66667	10839
10,67733	10838
10,68800	10836
10,69867	10826
10,70933	10813
10,72000	10770
10,73067	10724
10,74133	10674
10,75200	10607
10,76267	10540
10,77333	10472
10,78400	10399
10,79467	10328
10,80533	10271
10,81600	10232
10,82667	10209
10,83733	10223
10,84800	10293
10,85867	10434
10,86933	10681
10,88000	11071
10,89067	11670
10,90133	12577
10,91200	13939
10,92267	16014
10,93333	19167
10,94400	23928
10,95467	30952
10,96533	41175
10,97600	55476
10,98667	74963
10,99733	100356
11,00800	132405
11,01867	171048
11,02933	215973
11,04000	265801
11,05067	319065
11,06133	373405
11,07200	426497
11,08267	475743
11,09333	518735
11,10400	553466
11,11467	578184
11,12533	591903
11,13600	594122
11,14667	584952
11,15733	565411
11,16800	536781
11,17867	501097
11,18933	460092
11,20000	416078
11,21067	370808
11,22133	326259
11,23200	283603
11,24267	243963
11,25333	207902
11,26400	175783
11,27467	147752
11,28533	123615
11,29600	103186
11,30667	86017
11,31733	71811
11,32800	60119
11,33867	50580
11,34933	42786
11,36000	36494
11,37067	31392
11,38133	27299
11,39200	24013
11,40267	21383
11,41333	19302
11,42400	17663
11,43467	16375
11,44533	15365
11,45600	14603
11,46667	14029
11,47733	13585
11,48800	13271
11,49867	13026
11,50933	12841
11,52000	12698
11,53067	12585
11,54133	12480
11,55200	12384
11,56267	12290
11,57333	12195
11,58400	12095
11,59467	11985
11,60533	11874
11,61600	11765
11,62667	11652
11,63733	11549
11,64800	11475
11,65867	11410
11,66933	11371
11,68000	11365
11,69067	11403
11,70133	11480
11,71200	11599
11,72267	11761
11,73333	11948
11,74400	12154
11,75467	12380
11,76533	12580
11,77600	12750
11,78667	12884
11,79733	12985
11,80800	13028
11,81867	13030
11,82933	12990
11,84000	12917
11,85067	12809
11,86133	12691
11,87200	12553
11,88267	12410
11,89333	12265
11,90400	12122
11,91467	11992
11,92533	11864
11,93600	11752
11,94667	11653
11,95733	11565
11,96800	11476
11,97867	11401
11,98933	11342
12,00000	11292
12,01067	11257
12,02133	11239
12,03200	11233
12,04267	11273
12,05333	11340
12,06400	11445
12,07467	11598
12,08533	11816
12,09600	12078
12,10667	12408
12,11733	12792
12,12800	13205
12,13867	13653
12,14933	14115
12,16000	14534
12,17067	14927
12,18133	15227
12,19200	15413
12,20267	15486
12,21333	15448
12,22400	15280
12,23467	14998
12,24533	14642
12,25600	14222
12,26667	13760
12,27733	13278
12,28800	12823
12,29867	12402
12,30933	12026
12,32000	11688
12,33067	11405
12,34133	11169
12,35200	10970
12,36267	10806
12,37333	10674
12,38400	10562
12,39467	10484
12,40533	10423
12,41600	10403
12,42667	10406
12,43733	10439
12,44800	10501
12,45867	10601
12,46933	10739
12,48000	10901
12,49067	11104
12,50133	11324
12,51200	11563
12,52267	11806
12,53333	12047
12,54400	12286
12,55467	12517
12,56533	12733
12,57600	12926
12,58667	13101
12,59733	13270
12,60800	13412
12,61867	13546
12,62933	13664
12,64000	13766
12,65067	13844
12,66133	13898
12,67200	13934
12,68267	13936
12,69333	13909
12,70400	13850
12,71467	13752
12,72533	13629
12,73600	13469
12,74667	13299
12,75733	13118
12,76800	12931
12,77867	12734
12,78933	12541
12,80000	12362
12,81067	12208
12,82133	12076
12,83200	11959
12,84267	11876
12,85333	11819
12,86400	11778
12,87467	11765
12,88533	11761
12,89600	11776
12,90667	11796
12,91733	11832
12,92800	11873
12,93867	11923
12,94933	11976
12,96000	12041
12,97067	12096
12,98133	12134
12,99200	12180
13,00267	12213
13,01333	12234
13,02400	12252
13,03467	12268
13,04533	12266
13,05600	12258
13,06667	12266
13,07733	12279
13,08800	12292
13,09867	12322
13,10933	12403
13,12000	12597
13,13067	13035
13,14133	14130
13,15200	16646
13,16267	21917
13,17333	31570
13,18400	47049
13,19467	68479
13,20533	94539
13,21600	122498
13,22667	149369
13,23733	172707
13,24800	190993
13,25867	203867
13,26933	211645
13,28000	215120
13,29067	215173
13,30133	212597
13,31200	208112
13,32267	202210
13,33333	195351
13,34400	187818
13,35467	179889
13,36533	171710
13,37600	163455
13,38667	155229
13,39733	147148
13,40800	139277
13,41867	131650
13,42933	124345
13,44000	117347
13,45067	110695
13,46133	104362
13,47200	98388
13,48267	92708
13,49333	87356
13,50400	82276
13,51467	77489
13,52533	72960
13,53600	68706
13,54667	64698
13,55733	60933
13,56800	57412
13,57867	54127
13,58933	51093
13,60000	48287
13,61067	45711
13,62133	43348
13,63200	41185
13,64267	39213
13,65333	37426
13,66400	35796
13,67467	34306
13,68533	32933
13,69600	31670
13,70667	30494
13,71733	29380
13,72800	28322
13,73867	27330
13,74933	26388
13,76000	25498
13,77067	24665
13,78133	23873
13,79200	23138
13,80267	22451
13,81333	21806
13,82400	21204
13,83467	20630
13,84533	20088
13,85600	19585
13,86667	19096
13,87733	18624
13,88800	18189
13,89867	17771
13,90933	17389
13,92000	17039
13,93067	16729
13,94133	16442
13,95200	16195
13,96267	15986
13,97333	15810
13,98400	15677
13,99467	15582
14,00533	15528
14,01600	15523
14,02667	15581
14,03733	15718
14,04800	15970
14,05867	16363
14,06933	16965
14,08000	17814
14,09067	18976
14,10133	20496
14,11200	22422
14,12267	24758
14,13333	27471
14,14400	30520
14,15467	33761
14,16533	37029
14,17600	40123
14,18667	42842
14,19733	44990
14,20800	46422
14,21867	47013
14,22933	46769
14,24000	45731
14,25067	43993
14,26133	41745
14,27200	39153
14,28267	36427
14,29333	33717
14,30400	31164
14,31467	28896
14,32533	26961
14,33600	25382
14,34667	24147
14,35733	23220
14,36800	22551
14,37867	22062
14,38933	21692
14,40000	21391
14,41067	21080
14,42133	20733
14,43200	20349
14,44267	19920
14,45333	19447
14,46400	18956
14,47467	18479
14,48533	18030
14,49600	17642
14,50667	17316
14,51733	17073
14,52800	16900
14,53867	16813
14,54933	16793
14,56000	16839
14,57067	16940
14,58133	17096
14,59200	17302
14,60267	17562
14,61333	17894
14,62400	18295
14,63467	18794
14,64533	19394
14,65600	20087
14,66667	20878
14,67733	21733
14,68800	22596
14,69867	23437
14,70933	24195
14,72000	24802
14,73067	25201
14,74133	25357
14,75200	25285
14,76267	24962
14,77333	24451
14,78400	23803
14,79467	23071
14,80533	22332
14,81600	21656
14,82667	21088
14,83733	20674
14,84800	20438
14,85867	20379
14,86933	20488
14,88000	20755
14,89067	21157
14,90133	21685
14,91200	22288
14,92267	22957
14,93333	23645
14,94400	24338
14,95467	24998
14,96533	25595
14,97600	26096
14,98667	26464
14,99733	26667
15,00800	26686
15,01867	26501
15,02933	26102
15,04000	25514
15,05067	24749
15,06133	23855
15,07200	22875
15,08267	21870
15,09333	20868
15,10400	19920
15,11467	19079
15,12533	18341
15,13600	17734
15,14667	17272
15,15733	16955
15,16800	16777
15,17867	16754
15,18933	16899
15,20000	17248
15,21067	17811
15,22133	18627
15,23200	19727
15,24267	21146
15,25333	22873
15,26400	24891
15,27467	27135
15,28533	29486
15,29600	31837
15,30667	34017
15,31733	35849
15,32800	37198
15,33867	37921
15,34933	37998
15,36000	37417
15,37067	36232
15,38133	34576
15,39200	32567
15,40267	30373
15,41333	28163
15,42400	26057
15,43467	24143
15,44533	22491
15,45600	21137
15,46667	20095
15,47733	19330
15,48800	18827
15,49867	18554
15,50933	18467
15,52000	18543
15,53067	18766
15,54133	19124
15,55200	19571
15,56267	20105
15,57333	20709
15,58400	21340
15,59467	21973
15,60533	22562
15,61600	23069
15,62667	23456
15,63733	23692
15,64800	23771
15,65867	23675
15,66933	23415
15,68000	23013
15,69067	22490
15,70133	21891
15,71200	21251
15,72267	20605
15,73333	19982
15,74400	19405
15,75467	18896
15,76533	18467
15,77600	18105
15,78667	17824
15,79733	17625
15,80800	17493
15,81867	17429
15,82933	17410
15,84000	17439
15,85067	17494
15,86133	17559
15,87200	17621
15,88267	17691
15,89333	17741
15,90400	17770
15,91467	17775
15,92533	17755
15,93600	17714
15,94667	17657
15,95733	17592
15,96800	17532
15,97867	17468
15,98933	17433
16,00000	17411
16,01067	17404
16,02133	17419
16,03200	17454
16,04267	17497
16,05333	17544
16,06400	17598
16,07467	17650
16,08533	17701
16,09600	17744
16,10667	17797
16,11733	17854
16,12800	17920
16,13867	18000
16,14933	18097
16,16000	18205
16,17067	18327
16,18133	18448
16,19200	18585
16,20267	18727
16,21333	18870
16,22400	19003
16,23467	19127
16,24533	19228
16,25600	19307
16,26667	19374
16,27733	19423
16,28800	19451
16,29867	19456
16,30933	19427
16,32000	19395
16,33067	19342
16,34133	19276
16,35200	19189
16,36267	19096
16,37333	18997
16,38400	18908
16,39467	18824
16,40533	18737
16,41600	18658
16,42667	18588
16,43733	18542
16,44800	18498
16,45867	18455
16,46933	18409
16,48000	18370
16,49067	18334
16,50133	18276
16,51200	18214
16,52267	18145
16,53333	18062
16,54400	17982
16,55467	17884
16,56533	17796
16,57600	17722
16,58667	17648
16,59733	17597
16,60800	17570
16,61867	17568
16,62933	17595
16,64000	17638
16,65067	17719
16,66133	17832
16,67200	17970
16,68267	18116
16,69333	18284
16,70400	18449
16,71467	18623
16,72533	18806
16,73600	18992
16,74667	19171
16,75733	19340
16,76800	19495
16,77867	19672
16,78933	19848
16,80000	20039
16,81067	20226
16,82133	20417
16,83200	20612
16,84267	20800
16,85333	20960
16,86400	21086
16,87467	21177
16,88533	21200
16,89600	21169
16,90667	21081
16,91733	20950
16,92800	20780
16,93867	20604
16,94933	20417
16,96000	20242
16,97067	20095
16,98133	19957
16,99200	19848
17,00267	19736
17,01333	19653
17,02400	19564
17,03467	19462
17,04533	19338
17,05600	19202
17,06667	19052
17,07733	18883
17,08800	18717
17,09867	18539
17,10933	18368
17,12000	18202
17,13067	18048
17,14133	17911
17,15200	17806
17,16267	17721
17,17333	17650
17,18400	17609
17,19467	17592
17,20533	17602
17,21600	17627
17,22667	17684
17,23733	17748
17,24800	17819
17,25867	17906
17,26933	17981
17,28000	18074
17,29067	18146
17,30133	18216
17,31200	18267
17,32267	18308
17,33333	18333
17,34400	18343
17,35467	18351
17,36533	18347
17,37600	18337
17,38667	18320
17,39733	18306
17,40800	18290
17,41867	18280
17,42933	18282
17,44000	18286
17,45067	18300
17,46133	18324
17,47200	18351
17,48267	18383
17,49333	18432
17,50400	18493
17,51467	18536
17,52533	18603
17,53600	18668
17,54667	18738
17,55733	18820
17,56800	18894
17,57867	18965
17,58933	19050
17,60000	19151
17,61067	19252
17,62133	19364
17,63200	19483
17,64267	19603
17,65333	19719
17,66400	19833
17,67467	19934
17,68533	20012
17,69600	20093
17,70667	20135
17,71733	20159
17,72800	20159
17,73867	20145
17,74933	20114
17,76000	20067
17,77067	20016
17,78133	19965
17,79200	19921
17,80267	19886
17,81333	19872
17,82400	19877
17,83467	19887
17,84533	19915
17,85600	19949
17,86667	19979
17,87733	20005
17,88800	20018
17,89867	20019
17,90933	20018
17,92000	19998
17,93067	19963
17,94133	19930
17,95200	19897
17,96267	19869
17,97333	19860
17,98400	19859
17,99467	19876
18,00533	19923
18,01600	19992
18,02667	20069
18,03733	20171
18,04800	20285
18,05867	20403
18,06933	20517
18,08000	20630
18,09067	20731
18,10133	20812
18,11200	20869
18,12267	20922
18,13333	20945
18,14400	20963
18,15467	20970
18,16533	20977
18,17600	20971
18,18667	20969
18,19733	20960
18,20800	20956
18,21867	20948
18,22933	20936
18,24000	20912
18,25067	20877
18,26133	20831
18,27200	20778
18,28267	20713
18,29333	20632
18,30400	20548
18,31467	20477
18,32533	20421
18,33600	20368
18,34667	20328
18,35733	20318
18,36800	20317
18,37867	20346
18,38933	20397
18,40000	20467
18,41067	20546
18,42133	20632
18,43200	20725
18,44267	20820
18,45333	20890
18,46400	20954
18,47467	20989
18,48533	21011
18,49600	21000
18,50667	20976
18,51733	20935
18,52800	20878
18,53867	20825
18,54933	20782
18,56000	20748
18,57067	20726
18,58133	20732
18,59200	20750
18,60267	20790
18,61333	20855
18,62400	20934
18,63467	21025
18,64533	21126
18,65600	21242
18,66667	21367
18,67733	21495
18,68800	21629
18,69867	21756
18,70933	21863
18,72000	21947
18,73067	22015
18,74133	22051
18,75200	22045
18,76267	22003
18,77333	21931
18,78400	21823
18,79467	21690
18,80533	21545
18,81600	21406
18,82667	21272
18,83733	21166
18,84800	21076
18,85867	21020
18,86933	21014
18,88000	21047
18,89067	21108
18,90133	21212
18,91200	21331
18,92267	21480
18,93333	21655
18,94400	21833
18,95467	22014
18,96533	22197
18,97600	22376
18,98667	22554
18,99733	22723
19,00800	22864
19,01867	23002
19,02933	23116
19,04000	23231
19,05067	23333
19,06133	23426
19,07200	23509
19,08267	23606
19,09333	23710
19,10400	23817
19,11467	23940
19,12533	24084
19,13600	24216
19,14667	24349
19,15733	24476
19,16800	24587
19,17867	24659
19,18933	24700
19,20000	24707
19,21067	24669
19,22133	24597
19,23200	24508
19,24267	24385
19,25333	24249
19,26400	24106
19,27467	23940
19,28533	23769
19,29600	23586
19,30667	23403
19,31733	23204
19,32800	23015
19,33867	22819
19,34933	22632
19,36000	22444
19,37067	22278
19,38133	22120
19,39200	21986
19,40267	21874
19,41333	21792
19,42400	21739
19,43467	21737
19,44533	21828
19,45600	22014
19,46667	22368
19,47733	22952
19,48800	23880
19,49867	25280
19,50933	27265
19,52000	29996
19,53067	33588
19,54133	38167
19,55200	43727
19,56267	50231
19,57333	57454
19,58400	65118
19,59467	72771
19,60533	79973
19,61600	86159
19,62667	90910
19,63733	93875
19,64800	94834
19,65867	93787
19,66933	90880
19,68000	86382
19,69067	80706
19,70133	74270
19,71200	67534
19,72267	60849
19,73333	54536
19,74400	48794
19,75467	43730
19,76533	39386
19,77600	35757
19,78667	32768
19,79733	30363
19,80800	28424
19,81867	26876
19,82933	25671
19,84000	24722
19,85067	23980
19,86133	23407
19,87200	22976
19,88267	22657
19,89333	22406
19,90400	22238
19,91467	22112
19,92533	22025
19,93600	21959
19,94667	21923
19,95733	21905
19,96800	21886
19,97867	21876
19,98933	21865
20,00000	21858
20,01067	21852
20,02133	21839
20,03200	21835
20,04267	21820
20,05333	21802
20,06400	21793
20,07467	21782
20,08533	21771
20,09600	21769
20,10667	21783
20,11733	21807
20,12800	21860
20,13867	21949
20,14933	22097
20,16000	22339
20,17067	22742
20,18133	23363
20,19200	24314
20,20267	25746
20,21333	27827
20,22400	30794
20,23467	34844
20,24533	40258
20,25600	47136
20,26667	55654
20,27733	65729
20,28800	77195
20,29867	89567
20,30933	102349
20,32000	114746
20,33067	126004
20,34133	135296
20,35200	141952
20,36267	145512
20,37333	145766
20,38400	142785
20,39467	136891
20,40533	128605
20,41600	118626
20,42667	107616
20,43733	96318
20,44800	85255
20,45867	74925
20,46933	65562
20,48000	57382
20,49067	50403
20,50133	44602
20,51200	39844
20,52267	36010
20,53333	32978
20,54400	30579
20,55467	28708
20,56533	27261
20,57600	26165
20,58667	25335
20,59733	24724
20,60800	24288
20,61867	23989
20,62933	23805
20,64000	23697
20,65067	23651
20,66133	23660
20,67200	23697
20,68267	23748
20,69333	23797
20,70400	23826
20,71467	23864
20,72533	23872
20,73600	23857
20,74667	23818
20,75733	23765
20,76800	23680
20,77867	23597
20,78933	23501
20,80000	23412
20,81067	23323
20,82133	23259
20,83200	23211
20,84267	23189
20,85333	23211
20,86400	23255
20,87467	23341
20,88533	23457
20,89600	23599
20,90667	23768
20,91733	23962
20,92800	24178
20,93867	24392
20,94933	24613
20,96000	24815
20,97067	25032
20,98133	25219
20,99200	25385
21,00267	25526
21,01333	25643
21,02400	25727
21,03467	25779
21,04533	25793
21,05600	25789
21,06667	25748
21,07733	25660
21,08800	25545
21,09867	25393
21,10933	25194
21,12000	24976
21,13067	24715
21,14133	24442
21,15200	24156
21,16267	23879
21,17333	23616
21,18400	23381
21,19467	23190
21,20533	23041
21,21600	22955
21,22667	22910
21,23733	22909
21,24800	22949
21,25867	23024
21,26933	23125
21,28000	23241
21,29067	23364
21,30133	23488
21,31200	23609
21,32267	23737
21,33333	23878
21,34400	24036
21,35467	24236
21,36533	24485
21,37600	24822
21,38667	25266
21,39733	25875
21,40800	26686
21,41867	27782
21,42933	29219
21,44000	31067
21,45067	33407
21,46133	36274
21,47200	39686
21,48267	43626
21,49333	48034
21,50400	52765
21,51467	57682
21,52533	62526
21,53600	67090
21,54667	71096
21,55733	74318
21,56800	76596
21,57867	77754
21,58933	77733
21,60000	76574
21,61067	74355
21,62133	71243
21,63200	67424
21,64267	63136
21,65333	58583
21,66400	53987
21,67467	49524
21,68533	45347
21,69600	41529
21,70667	38154
21,71733	35224
21,72800	32761
21,73867	30710
21,74933	29043
21,76000	27712
21,77067	26666
21,78133	25860
21,79200	25253
21,80267	24796
21,81333	24475
21,82400	24235
21,83467	24088
21,84533	23989
21,85600	23932
21,86667	23916
21,87733	23910
21,88800	23929
21,89867	23958
21,90933	23996
21,92000	24040
21,93067	24082
21,94133	24120
21,95200	24176
21,96267	24223
21,97333	24280
21,98400	24334
21,99467	24395
22,00533	24458
22,01600	24522
22,02667	24602
22,03733	24675
22,04800	24738
22,05867	24784
22,06933	24817
22,08000	24798
22,09067	24741
22,10133	24646
22,11200	24527
22,12267	24368
22,13333	24196
22,14400	24015
22,15467	23841
22,16533	23679
22,17600	23552
22,18667	23448
22,19733	23383
22,20800	23347
22,21867	23358
22,22933	23384
22,24000	23427
22,25067	23476
22,26133	23532
22,27200	23568
22,28267	23588
22,29333	23575
22,30400	23544
22,31467	23493
22,32533	23420
22,33600	23344
22,34667	23272
22,35733	23213
22,36800	23175
22,37867	23151
22,38933	23146
22,40000	23178
22,41067	23214
22,42133	23257
22,43200	23297
22,44267	23322
22,45333	23313
22,46400	23290
22,47467	23238
22,48533	23177
22,49600	23092
22,50667	23013
22,51733	22946
22,52800	22931
22,53867	23009
22,54933	23254
22,56000	23763
22,57067	24670
22,58133	26194
22,59200	28563
22,60267	32122
22,61333	37223
22,62400	44307
22,63467	53695
22,64533	65704
22,65600	80418
22,66667	97733
22,67733	117263
22,68800	138178
22,69867	159514
22,70933	179945
22,72000	198260
22,73067	213091
22,74133	223486
22,75200	228731
22,76267	228614
22,77333	223360
22,78400	213528
22,79467	200092
22,80533	184016
22,81600	166491
22,82667	148468
22,83733	130905
22,84800	114436
22,85867	99489
22,86933	86348
22,88000	75048
22,89067	65551
22,90133	57652
22,91200	51192
22,92267	45929
22,93333	41675
22,94400	38218
22,95467	35414
22,96533	33127
22,97600	31241
22,98667	29685
22,99733	28386
23,00800	27309
23,01867	26412
23,02933	25671
23,04000	25048
23,05067	24543
23,06133	24132
23,07200	23813
23,08267	23583
23,09333	23417
23,10400	23318
23,11467	23275
23,12533	23286
23,13600	23354
23,14667	23449
23,15733	23593
23,16800	23766
23,17867	23950
23,18933	24134
23,20000	24309
23,21067	24444
23,22133	24547
23,23200	24600
23,24267	24614
23,25333	24571
23,26400	24474
23,27467	24340
23,28533	24163
23,29600	23965
23,30667	23747
23,31733	23528
23,32800	23309
23,33867	23095
23,34933	22909
23,36000	22735
23,37067	22590
23,38133	22473
23,39200	22390
23,40267	22327
23,41333	22287
23,42400	22273
23,43467	22284
23,44533	22305
23,45600	22349
23,46667	22406
23,47733	22475
23,48800	22556
23,49867	22645
23,50933	22759
23,52000	22898
23,53067	23069
23,54133	23271
23,55200	23488
23,56267	23723
23,57333	23960
23,58400	24183
23,59467	24368
23,60533	24505
23,61600	24584
23,62667	24575
23,63733	24485
23,64800	24324
23,65867	24104
23,66933	23830
23,68000	23518
23,69067	23199
23,70133	22885
23,71200	22601
23,72267	22341
23,73333	22124
23,74400	21944
23,75467	21809
23,76533	21705
23,77600	21624
23,78667	21570
23,79733	21537
23,80800	21515
23,81867	21501
23,82933	21492
23,84000	21479
23,85067	21462
23,86133	21435
23,87200	21425
23,88267	21398
23,89333	21381
23,90400	21367
23,91467	21362
23,92533	21371
23,93600	21417
23,94667	21486
23,95733	21596
23,96800	21756
23,97867	21991
23,98933	22296
24,00000	22667
24,01067	23140
24,02133	23711
24,03200	24389
24,04267	25155
24,05333	26007
24,06400	26915
24,07467	27855
24,08533	28813
24,09600	29711
24,10667	30521
24,11733	31206
24,12800	31717
24,13867	32024
24,14933	32112
24,16000	31981
24,17067	31642
24,18133	31122
24,19200	30454
24,20267	29680
24,21333	28847
24,22400	27989
24,23467	27155
24,24533	26355
24,25600	25633
24,26667	25000
24,27733	24431
24,28800	23950
24,29867	23549
24,30933	23225
24,32000	22966
24,33067	22742
24,34133	22562
24,35200	22406
24,36267	22273
24,37333	22155
24,38400	22059
24,39467	21969
24,40533	21883
24,41600	21799
24,42667	21740
24,43733	21682
24,44800	21634
24,45867	21595
24,46933	21564
24,48000	21555
24,49067	21550
24,50133	21552
24,51200	21562
24,52267	21599
24,53333	21659
24,54400	21743
24,55467	21818
24,56533	21926
24,57600	22037
24,58667	22159
24,59733	22277
24,60800	22392
24,61867	22498
24,62933	22559
24,64000	22587
24,65067	22571
24,66133	22531
24,67200	22452
24,68267	22339
24,69333	22198
24,70400	22041
24,71467	21878
24,72533	21698
24,73600	21527
24,74667	21385
24,75733	21256
24,76800	21146
24,77867	21064
24,78933	21009
24,80000	21001
24,81067	21033
24,82133	21099
24,83200	21211
24,84267	21360
24,85333	21534
24,86400	21744
24,87467	21986
24,88533	22253
24,89600	22508
24,90667	22750
24,91733	22993
24,92800	23208
24,93867	23403
24,94933	23559
24,96000	23718
24,97067	23865
24,98133	24038
24,99200	24228
25,00267	24473
25,01333	24774
25,02400	25128
25,03467	25540
25,04533	25978
25,05600	26424
25,06667	26856
25,07733	27246
25,08800	27554
25,09867	27761
25,10933	27833
25,12000	27798
25,13067	27631
25,14133	27338
25,15200	26953
25,16267	26497
25,17333	25956
25,18400	25387
25,19467	24799
25,20533	24204
25,21600	23628
25,22667	23096
25,23733	22595
25,24800	22135
25,25867	21725
25,26933	21375
25,28000	21063
25,29067	20818
25,30133	20602
25,31200	20437
25,32267	20304
25,33333	20199
25,34400	20125
25,35467	20074
25,36533	20040
25,37600	20036
25,38667	20058
25,39733	20088
25,40800	20150
25,41867	20238
25,42933	20353
25,44000	20498
25,45067	20673
25,46133	20880
25,47200	21118
25,48267	21374
25,49333	21653
25,50400	21955
25,51467	22256
25,52533	22552
25,53600	22837
25,54667	23089
25,55733	23288
25,56800	23440
25,57867	23529
25,58933	23562
25,60000	23538
25,61067	23481
25,62133	23407
25,63200	23316
25,64267	23235
25,65333	23180
25,66400	23168
25,67467	23199
25,68533	23281
25,69600	23404
25,70667	23558
25,71733	23719
25,72800	23886
25,73867	24036
25,74933	24146
25,76000	24194
25,77067	24185
25,78133	24117
25,79200	23972
25,80267	23792
25,81333	23582
25,82400	23341
25,83467	23107
25,84533	22873
25,85600	22661
25,86667	22502
25,87733	22359
25,88800	22252
25,89867	22176
25,90933	22113
25,92000	22078
25,93067	22046
25,94133	22025
25,95200	21992
25,96267	21954
25,97333	21918
25,98400	21862
25,99467	21804
26,00533	21741
26,01600	21664
26,02667	21585
26,03733	21503
26,04800	21421
26,05867	21338
26,06933	21257
26,08000	21183
26,09067	21109
26,10133	21044
26,11200	20995
26,12267	20952
26,13333	20926
26,14400	20908
26,15467	20890
26,16533	20886
26,17600	20881
26,18667	20878
26,19733	20870
26,20800	20869
26,21867	20860
26,22933	20836
26,24000	20816
26,25067	20788
26,26133	20759
26,27200	20723
26,28267	20688
26,29333	20648
26,30400	20614
26,31467	20570
26,32533	20528
26,33600	20482
26,34667	20435
26,35733	20381
26,36800	20335
26,37867	20291
26,38933	20252
26,40000	20219
26,41067	20177
26,42133	20144
26,43200	20118
26,44267	20104
26,45333	20090
26,46400	20086
26,47467	20078
26,48533	20087
26,49600	20098
26,50667	20111
26,51733	20112
26,52800	20117
26,53867	20121
26,54933	20122
26,56000	20123
26,57067	20115
26,58133	20112
26,59200	20115
26,60267	20115
26,61333	20111
26,62400	20119
26,63467	20122
26,64533	20126
26,65600	20142
26,66667	20153
26,67733	20162
26,68800	20170
26,69867	20183
26,70933	20204
26,72000	20222
26,73067	20244
26,74133	20268
26,75200	20292
26,76267	20331
26,77333	20379
26,78400	20440
26,79467	20519
26,80533	20622
26,81600	20762
26,82667	20922
26,83733	21122
26,84800	21352
26,85867	21606
26,86933	21872
26,88000	22146
26,89067	22411
26,90133	22664
26,91200	22898
26,92267	23095
26,93333	23253
26,94400	23378
26,95467	23467
26,96533	23510
26,97600	23507
26,98667	23476
26,99733	23423
27,00800	23335
27,01867	23220
27,02933	23073
27,04000	22916
27,05067	22733
27,06133	22544
27,07200	22337
27,08267	22113
27,09333	21893
27,10400	21667
27,11467	21436
27,12533	21212
27,13600	20997
27,14667	20786
27,15733	20599
27,16800	20416
27,17867	20246
27,18933	20090
27,20000	19962
27,21067	19837
27,22133	19720
27,23200	19638
27,24267	19562
27,25333	19515
27,26400	19499
27,27467	19502
27,28533	19537
27,29600	19607
27,30667	19703
27,31733	19851
27,32800	20016
27,33867	20211
27,34933	20422
27,36000	20647
27,37067	20853
27,38133	21037
27,39200	21171
27,40267	21253
27,41333	21290
27,42400	21262
27,43467	21181
27,44533	21058
27,45600	20887
27,46667	20704
27,47733	20523
27,48800	20331
27,49867	20169
27,50933	20027
27,52000	19908
27,53067	19809
27,54133	19743
27,55200	19694
27,56267	19677
27,57333	19676
27,58400	19694
27,59467	19721
27,60533	19767
27,61600	19815
27,62667	19872
27,63733	19926
27,64800	19977
27,65867	20014
27,66933	20044
27,68000	20050
27,69067	20035
27,70133	19989
27,71200	19915
27,72267	19834
27,73333	19723
27,74400	19613
27,75467	19481
27,76533	19340
27,77600	19220
27,78667	19098
27,79733	18995
27,80800	18900
27,81867	18824
27,82933	18749
27,84000	18683
27,85067	18631
27,86133	18599
27,87200	18567
27,88267	18550
27,89333	18539
27,90400	18528
27,91467	18531
27,92533	18533
27,93600	18524
27,94667	18509
27,95733	18504
27,96800	18500
27,97867	18488
27,98933	18471
28,00000	18463
28,01067	18450
28,02133	18434
28,03200	18401
28,04267	18381
28,05333	18357
28,06400	18334
28,07467	18314
28,08533	18298
28,09600	18286
28,10667	18262
28,11733	18240
28,12800	18241
28,13867	18240
28,14933	18236
28,16000	18238
28,17067	18239
28,18133	18235
28,19200	18243
28,20267	18263
28,21333	18284
28,22400	18304
28,23467	18331
28,24533	18355
28,25600	18379
28,26667	18403
28,27733	18421
28,28800	18432
28,29867	18445
28,30933	18438
28,32000	18421
28,33067	18411
28,34133	18387
28,35200	18354
28,36267	18321
28,37333	18281
28,38400	18252
28,39467	18224
28,40533	18197
28,41600	18169
28,42667	18142
28,43733	18123
28,44800	18104
28,45867	18088
28,46933	18070
28,48000	18057
28,49067	18039
28,50133	18046
28,51200	18046
28,52267	18044
28,53333	18052
28,54400	18071
28,55467	18099
28,56533	18126
28,57600	18144
28,58667	18186
28,59733	18210
28,60800	18229
28,61867	18255
28,62933	18263
28,64000	18262
28,65067	18258
28,66133	18243
28,67200	18244
28,68267	18228
28,69333	18223
28,70400	18211
28,71467	18209
28,72533	18217
28,73600	18219
28,74667	18224
28,75733	18223
28,76800	18218
28,77867	18221
28,78933	18214
28,80000	18191
28,81067	18165
28,82133	18133
28,83200	18106
28,84267	18089
28,85333	18057
28,86400	18032
28,87467	18014
28,88533	17980
28,89600	17957
28,90667	17933
28,91733	17920
28,92800	17895
28,93867	17867
28,94933	17839
28,96000	17815
28,97067	17780
28,98133	17743
28,99200	17720
29,00267	17694
29,01333	17665
29,02400	17640
29,03467	17606
29,04533	17584
29,05600	17557
29,06667	17526
29,07733	17504
29,08800	17477
29,09867	17444
29,10933	17402
29,12000	17370
29,13067	17334
29,14133	17311
29,15200	17277
29,16267	17259
29,17333	17226
29,18400	17203
29,19467	17177
29,20533	17154
29,21600	17128
29,22667	17114
29,23733	17093
29,24800	17074
29,25867	17066
29,26933	17057
29,28000	17059
29,29067	17058
29,30133	17056
29,31200	17060
29,32267	17070
29,33333	17082
29,34400	17092
29,35467	17111
29,36533	17136
29,37600	17156
29,38667	17196
29,39733	17232
29,40800	17272
29,41867	17300
29,42933	17334
29,44000	17368
29,45067	17393
29,46133	17406
29,47200	17418
29,48267	17431
29,49333	17430
29,50400	17431
29,51467	17436
29,52533	17434
29,53600	17431
29,54667	17437
29,55733	17440
29,56800	17449
29,57867	17456
29,58933	17473
29,60000	17472
29,61067	17487
29,62133	17493
29,63200	17495
29,64267	17484
29,65333	17471
29,66400	17450
29,67467	17433
29,68533	17407
29,69600	17398
29,70667	17375
29,71733	17355
29,72800	17339
29,73867	17319
29,74933	17304
29,76000	17289
29,77067	17277
29,78133	17258
29,79200	17247
29,80267	17227
29,81333	17207
29,82400	17182
29,83467	17167
29,84533	17140
29,85600	17119
29,86667	17104
29,87733	17082
29,88800	17073
29,89867	17062
29,90933	17057
29,92000	17058
29,93067	17059
29,94133	17046
29,95200	17037
29,96267	17035
29,97333	17028
29,98400	17013
29,99467	17016
30,00533	17001
30,01600	16998
30,02667	16996
30,03733	16989
30,04800	17001
30,05867	17002
30,06933	17009
30,08000	17014
30,09067	17020
30,10133	17025
30,11200	17022
30,12267	17014
30,13333	17006
30,14400	16989
30,15467	16963
30,16533	16935
30,17600	16904
30,18667	16863
30,19733	16832
30,20800	16792
30,21867	16763
30,22933	16740
30,24000	16709
30,25067	16682
30,26133	16655
30,27200	16640
30,28267	16627
30,29333	16604
30,30400	16585
30,31467	16574
30,32533	16560
30,33600	16548
30,34667	16539
30,35733	16531
30,36800	16517
30,37867	16511
30,38933	16505
30,40000	16494
30,41067	16480
30,42133	16471
30,43200	16470
30,44267	16463
30,45333	16451
30,46400	16443
30,47467	16434
30,48533	16429
30,49600	16427
30,50667	16430
30,51733	16443
30,52800	16454
30,53867	16458
30,54933	16473
30,56000	16477
30,57067	16481
30,58133	16480
30,59200	16502
30,60267	16507
30,61333	16508
30,62400	16512
30,63467	16505
30,64533	16504
30,65600	16493
30,66667	16494
30,67733	16481
30,68800	16470
30,69867	16468
30,70933	16456
30,72000	16454
30,73067	16451
30,74133	16458
30,75200	16458
30,76267	16465
30,77333	16476
30,78400	16487
30,79467	16515
30,80533	16546
30,81600	16570
30,82667	16600
30,83733	16633
30,84800	16656
30,85867	16687
30,86933	16704
30,88000	16709
30,89067	16707
30,90133	16689
30,91200	16670
30,92267	16648
30,93333	16622
30,94400	16585
30,95467	16552
30,96533	16510
30,97600	16469
30,98667	16429
30,99733	16387
31,00800	16351
31,01867	16315
31,02933	16285
31,04000	16260
31,05067	16233
31,06133	16218
31,07200	16208
31,08267	16200
31,09333	16196
31,10400	16198
31,11467	16199
31,12533	16213
31,13600	16224
31,14667	16231
31,15733	16245
31,16800	16245
31,17867	16248
31,18933	16242
31,20000	16244
31,21067	16239
31,22133	16238
31,23200	16229
31,24267	16218
31,25333	16209
31,26400	16197
31,27467	16187
31,28533	16181
31,29600	16174
31,30667	16172
31,31733	16163
31,32800	16153
31,33867	16157
31,34933	16148
31,36000	16139
31,37067	16129
31,38133	16115
31,39200	16113
31,40267	16100
31,41333	16084
31,42400	16078
31,43467	16064
31,44533	16054
31,45600	16046
31,46667	16036
31,47733	16031
31,48800	16027
31,49867	16025
31,50933	16010
31,52000	15998
31,53067	16000
31,54133	16003
31,55200	15993
31,56267	15998
31,57333	16014
31,58400	16010
31,59467	16012
31,60533	16027
31,61600	16031
31,62667	16027
31,63733	16042
31,64800	16043
31,65867	16053
31,66933	16056
31,68000	16061
31,69067	16068
31,70133	16070
31,71200	16067
31,72267	16062
31,73333	16058
31,74400	16037
31,75467	16031
31,76533	16017
31,77600	15996
31,78667	15983
31,79733	15965
31,80800	15945
31,81867	15932
31,82933	15909
31,84000	15894
31,85067	15881
31,86133	15864
31,87200	15848
31,88267	15839
31,89333	15821
31,90400	15816
31,91467	15816
31,92533	15805
31,93600	15799
31,94667	15795
31,95733	15798
31,96800	15797
31,97867	15803
31,98933	15800
32,00000	15791
32,01067	15782
32,02133	15798
32,03200	15784
32,04267	15783
32,05333	15783
32,06400	15783
32,07467	15780
32,08533	15785
32,09600	15783
32,10667	15775
32,11733	15776
32,12800	15771
32,13867	15771
32,14933	15772
32,16000	15763
32,17067	15769
32,18133	15774
32,19200	15774
32,20267	15774
32,21333	15772
32,22400	15776
32,23467	15771
32,24533	15775
32,25600	15784
32,26667	15776
32,27733	15782
32,28800	15800
32,29867	15800
32,30933	15794
32,32000	15805
32,33067	15810
32,34133	15821
32,35200	15831
32,36267	15848
32,37333	15858
32,38400	15872
32,39467	15881
32,40533	15901
32,41600	15926
32,42667	15949
32,43733	15981
32,44800	16026
32,45867	16070
32,46933	16133
32,48000	16204
32,49067	16281
32,50133	16377
32,51200	16491
32,52267	16614
32,53333	16767
32,54400	16911
32,55467	17068
32,56533	17219
32,57600	17374
32,58667	17512
32,59733	17623
32,60800	17705
32,61867	17760
32,62933	17779
32,64000	17769
32,65067	17737
32,66133	17685
32,67200	17615
32,68267	17545
32,69333	17476
32,70400	17414
32,71467	17364
32,72533	17315
32,73600	17300
32,74667	17283
32,75733	17296
32,76800	17313
32,77867	17349
32,78933	17396
32,80000	17460
32,81067	17527
32,82133	17607
32,83200	17698
32,84267	17800
32,85333	17910
32,86400	18030
32,87467	18156
32,88533	18296
32,89600	18438
32,90667	18581
32,91733	18738
32,92800	18893
32,93867	19055
32,94933	19214
32,96000	19360
32,97067	19515
32,98133	19670
32,99200	19816
33,00267	19966
33,01333	20122
33,02400	20272
33,03467	20424
33,04533	20574
33,05600	20741
33,06667	20899
33,07733	21062
33,08800	21238
33,09867	21401
33,10933	21570
33,12000	21743
33,13067	21921
33,14133	22104
33,15200	22287
33,16267	22470
33,17333	22664
33,18400	22855
33,19467	23049
33,20533	23243
33,21600	23441
33,22667	23633
33,23733	23818
33,24800	23999
33,25867	24188
33,26933	24361
33,28000	24542
33,29067	24717
33,30133	24881
33,31200	25048
33,32267	25226
33,33333	25394
33,34400	25564
33,35467	25735
33,36533	25899
33,37600	26063
33,38667	26227
33,39733	26402
33,40800	26571
33,41867	26737
33,42933	26902
33,44000	27069
33,45067	27223
33,46133	27374
33,47200	27521
33,48267	27663
33,49333	27809
33,50400	27948
33,51467	28087
33,52533	28223
33,53600	28369
33,54667	28501
33,55733	28625
33,56800	28746
33,57867	28871
33,58933	28987
33,60000	29091
33,61067	29201
33,62133	29316
33,63200	29420
33,64267	29529
33,65333	29623
33,66400	29723
33,67467	29819
33,68533	29890
33,69600	29963
33,70667	30042
33,71733	30113
33,72800	30177
33,73867	30238
33,74933	30316
33,76000	30380
33,77067	30442
33,78133	30494
33,79200	30534
33,80267	30598
33,81333	30647
33,82400	30694
33,83467	30743
33,84533	30801
33,85600	30849
33,86667	30900
33,87733	30937
33,88800	30984
33,89867	31074
33,90933	31202
33,92000	31356
33,93067	31526
33,94133	31679
33,95200	31749
33,96267	31752
33,97333	31704
33,98400	31654
33,99467	31605
34,00533	31576
34,01600	31581
34,02667	31634
34,03733	31726
34,04800	31823
34,05867	31911
34,06933	31960
34,08000	31958
34,09067	31895
34,10133	31812
34,11200	31722
34,12267	31654
34,13333	31616
34,14400	31591
34,15467	31598
34,16533	31631
34,17600	31696
34,18667	31791
34,19733	31912
34,20800	32031
34,21867	32175
34,22933	32307
34,24000	32416
34,25067	32521
34,26133	32603
34,27200	32657
34,28267	32684
34,29333	32687
34,30400	32663
34,31467	32647
34,32533	32645
34,33600	32668
34,34667	32723
34,35733	32809
34,36800	32904
34,37867	32996
34,38933	33099
34,40000	33242
34,41067	33422
34,42133	33612
34,43200	33796
34,44267	33961
34,45333	34100
34,46400	34208
34,47467	34273
34,48533	34303
34,49600	34290
34,50667	34233
34,51733	34129
34,52800	33991
34,53867	33853
34,54933	33729
34,56000	33627
34,57067	33551
34,58133	33509
34,59200	33499
34,60267	33515
34,61333	33540
34,62400	33579
34,63467	33633
34,64533	33659
34,65600	33666
34,66667	33659
34,67733	33648
34,68800	33643
34,69867	33626
34,70933	33637
34,72000	33656
34,73067	33695
34,74133	33743
34,75200	33808
34,76267	33872
34,77333	33962
34,78400	34059
34,79467	34166
34,80533	34254
34,81600	34333
34,82667	34433
34,83733	34545
34,84800	34690
34,85867	34798
34,86933	34871
34,88000	34909
34,89067	34947
34,90133	34993
34,91200	35042
34,92267	35094
34,93333	35164
34,94400	35261
34,95467	35402
34,96533	35722
34,97600	36673
34,98667	39443
34,99733	45934
35,00800	57621
35,01867	75197
35,02933	97995
35,04000	123216
35,05067	143548
35,06133	151181
35,07200	144318
35,08267	128116
35,09333	109762
35,10400	93663
35,11467	81266
35,12533	72247
35,13600	65884
35,14667	61499
35,15733	58605
35,16800	56727
35,17867	55338
35,18933	54061
35,20000	52762
35,21067	51501
35,22133	50373
35,23200	49433
35,24267	48673
35,25333	48055
35,26400	47526
35,27467	47080
35,28533	46668
35,29600	46303
35,30667	45968
35,31733	45674
35,32800	45430
35,33867	45252
35,34933	45135
35,36000	44950
35,37067	44576
35,38133	44019
35,39200	43471
35,40267	43094
35,41333	42996
35,42400	43393
35,43467	44615
35,44533	46851
35,45600	49642
35,46667	52021
35,47733	53182
35,48800	53035
35,49867	52073
35,50933	50684
35,52000	49094
35,53067	47524
35,54133	46299
35,55200	45828
35,56267	46220
35,57333	47075
35,58400	47673
35,59467	47525
35,60533	46711
35,61600	45661
35,62667	44686
35,63733	43908
35,64800	43306
35,65867	42828
35,66933	42472
35,68000	42204
35,69067	42022
35,70133	41913
35,71200	41847
35,72267	41814
35,73333	41800
35,74400	41814
35,75467	41858
35,76533	41938
35,77600	42090
35,78667	42356
35,79733	42809
35,80800	43408
35,81867	44041
35,82933	44502
35,84000	44685
35,85067	44629
35,86133	44472
35,87200	44278
35,88267	44065
35,89333	43767
35,90400	43377
35,91467	42979
35,92533	42604
35,93600	42299
35,94667	42083
35,95733	41915
35,96800	41809
35,97867	41777
35,98933	41815
36,00000	41905
36,01067	42012
36,02133	42114
36,03200	42146
36,04267	42117
36,05333	42024
36,06400	41924
36,07467	41834
36,08533	41800
36,09600	41800
36,10667	41836
36,11733	41897
36,12800	41988
36,13867	42094
36,14933	42231
36,16000	42407
36,17067	42599
36,18133	42770
36,19200	42932
36,20267	43067
36,21333	43193
36,22400	43313
36,23467	43408
36,24533	43425
36,25600	43357
36,26667	43273
36,27733	43255
36,28800	43405
36,29867	43773
36,30933	44239
36,32000	44614
36,33067	44710
36,34133	44512
36,35200	44133
36,36267	43738
36,37333	43406
36,38400	43147
36,39467	42953
36,40533	42785
36,41600	42646
36,42667	42524
36,43733	42427
36,44800	42367
36,45867	42332
36,46933	42311
36,48000	42305
36,49067	42309
36,50133	42342
36,51200	42365
36,52267	42389
36,53333	42402
36,54400	42411
36,55467	42424
36,56533	42435
36,57600	42448
36,58667	42450
36,59733	42450
36,60800	42444
36,61867	42445
36,62933	42454
36,64000	42471
36,65067	42505
36,66133	42556
36,67200	42611
36,68267	42662
36,69333	42715
36,70400	42755
36,71467	42779
36,72533	42810
36,73600	42855
36,74667	42932
36,75733	43018
36,76800	43106
36,77867	43135
36,78933	43099
36,80000	43020
36,81067	42898
36,82133	42782
36,83200	42695
36,84267	42635
36,85333	42594
36,86400	42557
36,87467	42542
36,88533	42537
36,89600	42539
36,90667	42532
36,91733	42528
36,92800	42529
36,93867	42547
36,94933	42561
36,96000	42605
36,97067	42691
36,98133	42829
36,99200	43020
37,00267	43253
37,01333	43505
37,02400	43719
37,03467	43841
37,04533	43846
37,05600	43738
37,06667	43553
37,07733	43334
37,08800	43112
37,09867	42928
37,10933	42798
37,12000	42698
37,13067	42644
37,14133	42608
37,15200	42607
37,16267	42625
37,17333	42678
37,18400	42756
37,19467	42855
37,20533	42963
37,21600	43026
37,22667	43046
37,23733	43010
37,24800	42944
37,25867	42849
37,26933	42773
37,28000	42707
37,29067	42658
37,30133	42625
37,31200	42606
37,32267	42590
37,33333	42572
37,34400	42554
37,35467	42558
37,36533	42546
37,37600	42548
37,38667	42555
37,39733	42568
37,40800	42577
37,41867	42577
37,42933	42585
37,44000	42587
37,45067	42591
37,46133	42590
37,47200	42599
37,48267	42610
37,49333	42627
37,50400	42632
37,51467	42630
37,52533	42640
37,53600	42642
37,54667	42645
37,55733	42642
37,56800	42637
37,57867	42626
37,58933	42631
37,60000	42624
37,61067	42615
37,62133	42625
37,63200	42622
37,64267	42626
37,65333	42633
37,66400	42624
37,67467	42631
37,68533	42634
37,69600	42643
37,70667	42650
37,71733	42663
37,72800	42685
37,73867	42715
37,74933	42742
37,76000	42767
37,77067	42783
37,78133	42806
37,79200	42818
37,80267	42814
37,81333	42797
37,82400	42772
37,83467	42761
37,84533	42748
37,85600	42729
37,86667	42725
37,87733	42722
37,88800	42715
37,89867	42712
37,90933	42712
37,92000	42710
37,93067	42705
37,94133	42708
37,95200	42709
37,96267	42704
37,97333	42698
37,98400	42700
37,99467	42706
38,00533	42701
38,01600	42702
38,02667	42706
38,03733	42708
38,04800	42703
38,05867	42690
38,06933	42691
38,08000	42692
38,09067	42694
38,10133	42707
38,11200	42697
38,12267	42697
38,13333	42694
38,14400	42698
38,15467	42703
38,16533	42697
38,17600	42702
38,18667	42705
38,19733	42719
38,20800	42730
38,21867	42740
38,22933	42748
38,24000	42752
38,25067	42759
38,26133	42772
38,27200	42776
38,28267	42775
38,29333	42766
38,30400	42768
38,31467	42765
38,32533	42763
38,33600	42756
38,34667	42754
38,35733	42751
38,36800	42743
38,37867	42746
38,38933	42752
38,40000	42754
38,41067	42755
38,42133	42759
38,43200	42754
38,44267	42766
38,45333	42777
38,46400	42777
38,47467	42769
38,48533	42771
38,49600	42780
38,50667	42791
38,51733	42792
38,52800	42790
38,53867	42796
38,54933	42808
38,56000	42809
38,57067	42813
38,58133	42815
38,59200	42807
38,60267	42814
38,61333	42821
38,62400	42823
38,63467	42835
38,64533	42838
38,65600	42860
38,66667	42875
38,67733	42897
38,68800	42899
38,69867	42915
38,70933	42933
38,72000	42964
38,73067	42999
38,74133	43055
38,75200	43162
38,76267	43334
38,77333	43621
38,78400	44083
38,79467	44812
38,80533	45893
38,81600	47439
38,82667	49573
38,83733	52327
38,84800	55709
38,85867	59509
38,86933	63482
38,88000	67192
38,89067	70212
38,90133	72099
38,91200	72581
38,92267	71596
38,93333	69315
38,94400	66072
38,95467	62347
38,96533	58544
38,97600	55038
38,98667	52053
38,99733	49661
39,00800	47865
39,01867	46562
39,02933	45654
39,04000	45030
39,05067	44603
39,06133	44298
39,07200	44080
39,08267	43914
39,09333	43778
39,10400	43664
39,11467	43562
39,12533	43461
39,13600	43354
39,14667	43250
39,15733	43150
39,16800	43044
39,17867	42941
39,18933	42824
39,20000	42703
39,21067	42575
39,22133	42455
39,23200	42317
39,24267	42174
39,25333	42021
39,26400	41858
39,27467	41690
39,28533	41518
39,29600	41337
39,30667	41143
39,31733	40939
39,32800	40733
39,33867	40519
39,34933	40304
39,36000	40078
39,37067	39857
39,38133	39628
39,39200	39400
39,40267	39151
39,41333	38932
39,42400	38719
39,43467	38507
39,44533	38268
39,45600	38059
39,46667	37877
39,47733	37685
39,48800	37481
39,49867	37284
39,50933	37088
39,52000	36869
39,53067	36635
39,54133	36376
39,55200	36088
39,56267	35782
39,57333	35448
39,58400	35100
39,59467	34765
39,60533	34448
39,61600	34122
39,62667	33750
39,63733	33316
39,64800	32802
39,65867	32191
39,66933	31454
39,68000	30613
39,69067	29652
39,70133	28588
39,71200	27467
39,72267	26328
39,73333	25166
39,74400	23989
39,75467	22783
39,76533	21577
39,77600	20351
39,78667	19128
39,79733	17945
39,80800	16813
39,81867	15751
39,82933	14737
39,84000	13780
39,85067	12875
39,86133	12038
39,87200	11267
39,88267	10541
39,89333	9887
39,90400	9274
39,91467	8722
39,92533	8201
39,93600	7733
39,94667	7296
39,95733	6890
39,96800	6511
39,97867	6165
39,98933	5846
40,00000	5560
40,01067	5285
40,02133	5033
40,03200	4796
40,04267	4584
40,05333	4378
40,06400	4180
40,07467	4012
40,08533	3848
40,09600	3697
40,10667	3547
40,11733	3414
40,12800	3284
40,13867	3158
40,14933	3045
40,16000	2941
40,17067	2835
40,18133	2733
40,19200	2635
40,20267	2543
40,21333	2455
40,22400	2366
40,23467	2284
40,24533	2208
40,25600	2139
40,26667	2072
40,27733	1993
40,28800	1920
40,29867	1854
40,30933	1786
40,32000	1728
40,33067	1675
40,34133	1622
40,35200	1567
40,36267	1518
40,37333	1464
40,38400	1413
40,39467	1363
40,40533	1318
40,41600	1276
40,42667	1239
40,43733	1195
40,44800	1151
40,45867	1111
40,46933	1066
40,48000	1032
40,49067	997
40,50133	967
40,51200	931
40,52267	894
40,53333	867
40,54400	831
40,55467	803
40,56533	775
40,57600	734
40,58667	705
40,59733	677
40,60800	648
40,61867	624
40,62933	596
40,64000	577
40,65067	544
40,66133	525
40,67200	509
40,68267	480
40,69333	446
40,70400	427
40,71467	407
40,72533	384
40,73600	364
40,74667	337
40,75733	309
40,76800	292
40,77867	263
40,78933	240
40,80000	218
40,81067	198
40,82133	176
40,83200	158
40,84267	141
40,85333	122
40,86400	102
40,87467	89
40,88533	71
40,89600	57
40,90667	29
40,91733	15
40,92800	2
40,93867	-14
40,94933	-21
40,96000	-37
40,97067	-60
40,98133	-68
40,99200	-79
41,00267	-94
41,01333	-104
41,02400	-120
41,03467	-124
41,04533	-132
41,05600	-140
41,06667	-153
41,07733	-159
41,08800	-164
41,09867	-170
41,10933	-182
41,12000	-196
41,13067	-204
41,14133	-202
41,15200	-212
41,16267	-229
41,17333	-231
41,18400	-237
41,19467	-244
41,20533	-260
41,21600	-254
41,22667	-258
41,23733	-270
41,24800	-276
41,25867	-282
41,26933	-281
41,28000	-284
41,29067	-297
41,30133	-300
41,31200	-302
41,32267	-306
41,33333	-308
41,34400	-308
41,35467	-308
41,36533	-316
41,37600	-314
41,38667	-318
41,39733	-321
41,40800	-320
41,41867	-320
41,42933	-318
41,44000	-313
41,45067	-314
41,46133	-305
41,47200	-305
41,48267	-310
41,49333	-311
41,50400	-306
41,51467	-297
41,52533	-288
41,53600	-286
41,54667	-286
41,55733	-285
41,56800	-270
41,57867	-264
41,58933	-269
41,60000	-253
41,61067	-249
41,62133	-240
41,63200	-233
41,64267	-224
41,65333	-214
41,66400	-210
41,67467	-199
41,68533	-200
41,69600	-190
41,70667	-183
41,71733	-170
41,72800	-161
41,73867	-152
41,74933	-145
41,76000	-146
41,77067	-136
41,78133	-127
41,79200	-122
41,80267	-107
41,81333	-103
41,82400	-104
41,83467	-91
41,84533	-82
41,85600	-73
41,86667	-66
41,87733	-58
41,88800	-47
41,89867	-48
41,90933	-32
41,92000	-34
41,93067	-29
41,94133	-23
41,95200	-14
41,96267	-8
41,97333	-5
41,98400	-3
41,99467	2
42,00533	12
42,01600	16
42,02667	25
42,03733	25
42,04800	28
42,05867	30
42,06933	36
42,08000	45
42,09067	44
42,10133	54
42,11200	54
42,12267	51
42,13333	59
42,14400	69
42,15467	79
42,16533	75
42,17600	77
42,18667	84
42,19733	86
42,20800	90
42,21867	96
42,22933	94
42,24000	93
42,25067	98
42,26133	102
42,27200	103
42,28267	96
42,29333	92
42,30400	105
42,31467	109
42,32533	108
42,33600	110
42,34667	115
42,35733	118
42,36800	116
42,37867	115
42,38933	117
42,40000	119
42,41067	124
42,42133	118
42,43200	116
42,44267	119
42,45333	113
42,46400	121
42,47467	124
42,48533	128
42,49600	125
42,50667	122
42,51733	125
42,52800	120
42,53867	122
42,54933	116
42,56000	118
42,57067	119
42,58133	125
42,59200	118
42,60267	120
42,61333	127
42,62400	124
42,63467	122
42,64533	128
42,65600	127
42,66667	127
42,67733	123
42,68800	128
42,69867	131
42,70933	126
42,72000	123
42,73067	115
42,74133	124
42,75200	124
42,76267	121
42,77333	129
42,78400	136
42,79467	128
42,80533	129
42,81600	132
42,82667	131
42,83733	120
42,84800	125
42,85867	124
42,86933	128
42,88000	130
42,89067	132
42,90133	124
42,91200	125
42,92267	127
42,93333	130
42,94400	130
42,95467	122
42,96533	125
42,97600	129
42,98667	129
42,99733	121
43,00800	120
43,01867	124
43,02933	120
43,04000	127
43,05067	131
43,06133	138
43,07200	135
43,08267	125
43,09333	125
43,10400	128
43,11467	129
43,12533	128
43,13600	139
43,14667	133
43,15733	137
43,16800	130
43,17867	129
43,18933	124
43,20000	120
43,21067	126
43,22133	126
43,23200	127
43,24267	122
43,25333	124
43,26400	122
43,27467	129
43,28533	132
43,29600	128
43,30667	133
43,31733	133
43,32800	135
43,33867	127
43,34933	130
43,36000	127
43,37067	134
43,38133	139
43,39200	133
43,40267	129
43,41333	124
43,42400	130
43,43467	129
43,44533	128
43,45600	129
43,46667	130
43,47733	130
43,48800	126
43,49867	127
43,50933	125
43,52000	131
43,53067	126
43,54133	127
43,55200	133
43,56267	133
43,57333	127
43,58400	121
43,59467	123
43,60533	130
43,61600	129
43,62667	128
43,63733	126
43,64800	121
43,65867	121
43,66933	127
43,68000	120
43,69067	120
43,70133	117
43,71200	124
43,72267	132
43,73333	126
43,74400	120
43,75467	124
43,76533	125
43,77600	122
43,78667	116
43,79733	120
43,80800	126
43,81867	118
43,82933	112
43,84000	114
43,85067	116
43,86133	116
43,87200	116
43,88267	114
43,89333	106
43,90400	116
43,91467	113
43,92533	107
43,93600	120
43,94667	116
43,95733	110
43,96800	109
43,97867	106
43,98933	105
44,00000	106
44,01067	107
44,02133	107
44,03200	106
44,04267	109
44,05333	105
44,06400	106
44,07467	100
44,08533	104
44,09600	107
44,10667	107
44,11733	99
44,12800	97
44,13867	108
44,14933	106
44,16000	107
44,17067	106
44,18133	101
44,19200	100
44,20267	98
44,21333	101
44,22400	106
44,23467	101
44,24533	97
44,25600	96
44,26667	97
44,27733	97
44,28800	88
44,29867	94
44,30933	90
44,32000	93
44,33067	87
44,34133	96
44,35200	97
44,36267	105
44,37333	96
44,38400	92
44,39467	93
44,40533	96
44,41600	97
44,42667	92
44,43733	95
44,44800	105
44,45867	99
44,46933	93
44,48000	93
44,49067	94
44,50133	87
44,51200	87
44,52267	87
44,53333	89
44,54400	88
44,55467	94
44,56533	95
44,57600	99
44,58667	95
44,59733	94
44,60800	88
44,61867	91
44,62933	95
44,64000	101
44,65067	94
44,66133	97
44,67200	89
44,68267	94
44,69333	101
44,70400	96
44,71467	103
44,72533	95
44,73600	93
44,74667	91
44,75733	96
44,76800	98
44,77867	98
44,78933	97
44,80000	95
44,81067	95
44,82133	93
44,83200	100
44,84267	91
44,85333	89
44,86400	89
44,87467	96
44,88533	92
44,89600	89
44,90667	84
44,91733	91
44,92800	98
44,93867	101
44,94933	91
44,96000	96
44,97067	86
44,98133	87
44,99200	91
45,00267	96
45,01333	100
45,02400	98
45,03467	90
45,04533	97
45,05600	87
45,06667	96
45,07733	89
45,08800	89
45,09867	95
45,10933	85
45,12000	94
45,13067	94
45,14133	88
45,15200	89
45,16267	90
45,17333	91
45,18400	94
45,19467	92
45,20533	93
45,21600	90
45,22667	87
45,23733	87
45,24800	91
45,25867	91
45,26933	88
45,28000	90
45,29067	88
45,30133	87
45,31200	87
45,32267	92
45,33333	84
45,34400	86
45,35467	91
45,36533	91
45,37600	84
45,38667	92
45,39733	91
45,40800	93
45,41867	93
45,42933	87
45,44000	88
45,45067	94
45,46133	85
45,47200	90
45,48267	86
45,49333	89
45,50400	91
45,51467	84
45,52533	89
45,53600	86
45,54667	88
45,55733	91
45,56800	88
45,57867	94
45,58933	93
45,60000	95
45,61067	89
45,62133	89
45,63200	86
45,64267	95
45,65333	94
45,66400	90
45,67467	93
45,68533	90
45,69600	87
45,70667	93
45,71733	95
45,72800	100
45,73867	89
45,74933	90
45,76000	92
45,77067	94
45,78133	86
45,79200	89
45,80267	90
45,81333	86
45,82400	84
45,83467	86
45,84533	91
45,85600	92
45,86667	93
45,87733	93
45,88800	89
45,89867	93
45,90933	95
45,92000	98
45,93067	96
45,94133	93
45,95200	92
45,96267	96
45,97333	93
45,98400	100
45,99467	94
46,00533	101
46,01600	98
46,02667	102
46,03733	104
46,04800	99
46,05867	91
46,06933	94
46,08000	88
46,09067	96
46,10133	91
46,11200	90
46,12267	91
46,13333	87
46,14400	87
46,15467	85
46,16533	96
46,17600	92
46,18667	90
46,19733	89
46,20800	90
46,21867	85
46,22933	94
46,24000	87
46,25067	87
46,26133	84
46,27200	92
46,28267	90
46,29333	91
46,30400	93
46,31467	94
46,32533	85
46,33600	83
46,34667	85
46,35733	88
46,36800	80
46,37867	78
46,38933	82
46,40000	81
46,41067	87
46,42133	80
46,43200	84
46,44267	82
46,45333	86
46,46400	87
46,47467	91
46,48533	85
46,49600	87
46,50667	84
46,51733	90
46,52800	95
46,53867	94
46,54933	88
46,56000	85
46,57067	90
46,58133	96
46,59200	95
46,60267	94
46,61333	82
46,62400	92
46,63467	90
46,64533	91
46,65600	92
46,66667	89
46,67733	90
46,68800	84
46,69867	82
46,70933	89
46,72000	84
46,73067	82
46,74133	89
46,75200	89
46,76267	86
46,77333	81
46,78400	78
46,79467	82
46,80533	78
46,81600	86
46,82667	85
46,83733	89
46,84800	86
46,85867	85
46,86933	75
46,88000	81
46,89067	84
46,90133	81
46,91200	85
46,92267	84
46,93333	79
46,94400	82
46,95467	73
46,96533	76
46,97600	84
46,98667	81
46,99733	78
47,00800	91
47,01867	87
47,02933	90
47,04000	90
47,05067	87
47,06133	82
47,07200	81
47,08267	79
47,09333	78
47,10400	80
47,11467	78
47,12533	79
47,13600	75
47,14667	65
47,15733	62
47,16800	74
47,17867	72
47,18933	66
47,20000	73
47,21067	73
47,22133	72
47,23200	69
47,24267	79
47,25333	80
47,26400	80
47,27467	73
47,28533	74
47,29600	82
47,30667	79
47,31733	78
47,32800	79
47,33867	81
47,34933	81
47,36000	75
47,37067	73
47,38133	73
47,39200	73
47,40267	60
47,41333	68
47,42400	73
47,43467	78
47,44533	70
47,45600	66
47,46667	79
47,47733	75
47,48800	69
47,49867	74
47,50933	70
47,52000	67
47,53067	71
47,54133	70
47,55200	70
47,56267	63
47,57333	62
47,58400	65
47,59467	61
47,60533	62
47,61600	62
47,62667	71
47,63733	67
47,64800	73
47,65867	65
47,66933	68
47,68000	67
47,69067	71
47,70133	73
47,71200	77
47,72267	68
47,73333	66
47,74400	69
47,75467	69
47,76533	63
47,77600	72
47,78667	70
47,79733	72
47,80800	69
47,81867	73
47,82933	74
47,84000	73
47,85067	70
47,86133	73
47,87200	73
47,88267	69
47,89333	75
47,90400	73
47,91467	66
47,92533	69
47,93600	66
47,94667	63
47,95733	69
47,96800	64
47,97867	68
47,98933	71
48,00000	68
48,01067	66
48,02133	59
48,03200	68
48,04267	62
48,05333	68
48,06400	60
48,07467	60
48,08533	60
48,09600	63
48,10667	58
48,11733	67
48,12800	71
48,13867	83
48,14933	69
48,16000	62
48,17067	65
48,18133	69
48,19200	73
48,20267	66
48,21333	77
48,22400	58
48,23467	66
48,24533	75
48,25600	65
48,26667	71
48,27733	65
48,28800	70
48,29867	75
48,30933	68
48,32000	65
48,33067	65
48,34133	69
48,35200	71
48,36267	80
48,37333	74
48,38400	74
48,39467	74
48,40533	74
48,41600	71
48,42667	63
48,43733	70
48,44800	68
48,45867	64
48,46933	59
48,48000	58
48,49067	68
48,50133	60
48,51200	61
48,52267	70
48,53333	67
48,54400	70
48,55467	69
48,56533	67
48,57600	63
48,58667	68
48,59733	72
48,60800	68
48,61867	67
48,62933	66
48,64000	67
48,65067	65
48,66133	71
48,67200	68
48,68267	62
48,69333	66
48,70400	66
48,71467	62
48,72533	59
48,73600	68
48,74667	62
48,75733	75
48,76800	69
48,77867	73
48,78933	56
48,80000	59
48,81067	64
48,82133	65
48,83200	65
48,84267	67
48,85333	62
48,86400	71
48,87467	64
48,88533	64
48,89600	55
48,90667	56
48,91733	62
48,92800	59
48,93867	58
48,94933	60
48,96000	63
48,97067	53
48,98133	59
48,99200	62
49,00267	58
49,01333	59
49,02400	57
49,03467	55
49,04533	50
49,05600	54
49,06667	54
49,07733	52
49,08800	58
49,09867	54
49,10933	49
49,12000	59
49,13067	57
49,14133	58
49,15200	52
49,16267	52
49,17333	50
49,18400	56
49,19467	50
49,20533	51
49,21600	57
49,22667	60
49,23733	50
49,24800	46
49,25867	49
49,26933	50
49,28000	50
49,29067	46
49,30133	47
49,31200	51
49,32267	51
49,33333	46
49,34400	48
49,35467	50
49,36533	53
49,37600	53
49,38667	46
49,39733	45
49,40800	38
49,41867	45
49,42933	46
49,44000	43
49,45067	48
49,46133	48
49,47200	49
49,48267	50
49,49333	43
49,50400	50
49,51467	54
49,52533	52
49,53600	51
49,54667	53
49,55733	49
49,56800	49
49,57867	38
49,58933	41
49,60000	47
49,61067	43
49,62133	43
49,63200	44
49,64267	43
49,65333	38
49,66400	35
49,67467	41
49,68533	37
49,69600	43
49,70667	47
49,71733	47
49,72800	45
49,73867	44
49,74933	44
49,76000	43
49,77067	43
49,78133	37
49,79200	35
49,80267	35
49,81333	36
49,82400	28
49,83467	28
49,84533	30
49,85600	28
49,86667	33
49,87733	36
49,88800	36
49,89867	35
49,90933	36
49,92000	26
49,93067	30
49,94133	23
49,95200	26
49,96267	25
49,97333	22
49,98400	28
49,99467	24
50,00533	19


