[Header]
Application Name	LabSolutions
Version	5.73
Data File Name	C:\Users\Public\DADOS\Ricardo borges\RMBorges\26.02.25\CHA REAL.lcd
Output Date	26/02/2025
Output Time	23:42:03

[File Information]
Type	Data File
Generated	26/02/2025 22:51:34
Generated by	System Administrator
Modified	26/02/2025 23:42:03
Modified by	System Administrator

[Sample Information]
Operator Name	System Administrator
Acquired	26/02/2025 22:52:00
Sample Type	0:Unknown
Level	0
Sample Name	CHA REAL
Sample ID	CHA REAL
ISTD Amount1	1
ISTD Amount2	1
ISTD Amount3	1
ISTD Amount4	1
ISTD Amount5	1
ISTD Amount6	1
ISTD Amount7	1
ISTD Amount8	1
ISTD Amount9	1
ISTD Amount10	1
ISTD Amount11	1
ISTD Amount12	1
ISTD Amount13	1
ISTD Amount14	1
ISTD Amount15	1
ISTD Amount16	1
ISTD Amount17	1
ISTD Amount18	1
ISTD Amount19	1
ISTD Amount20	1
ISTD Amount21	1
ISTD Amount22	1
ISTD Amount23	1
ISTD Amount24	1
ISTD Amount25	1
ISTD Amount26	1
ISTD Amount27	1
ISTD Amount28	1
ISTD Amount29	1
ISTD Amount30	1
ISTD Amount31	1
ISTD Amount32	1
Sample Amount	1
Dilution Factor	1
Vial#	18
Injection Volume	10

[Original Files]
Data File	C:\Users\Public\DADOS\Ricardo borges\RMBorges\26.02.25\CHA REAL.lcd
Method File	C:\Users\Public\MÉTODOS\MÉTODOS HPLC AUTOMÁTICO\RICARDO BORGES\RMBorges\sciffee\experimental 1 - pool.lcm
Batch File	C:\Users\Public\DADOS\Ricardo borges\RMBorges\26.02.25\BATCH_RM_MIX POOL_26.02.2025.lcb
Report Format File	C:\LabSolutions\System\Default.lsr

[File Description]


[Configuration]
Instrument Name	HPLC analítico (automático)
Instrument #	1
Line #	1
# of Detectors	1
Detector ID	PDA
Detector Name	PDA
# of Channels	1

[Peak Table(PDA-Ch1)]
# of Peaks	88
Peak#	R.Time	I.Time	F.Time	Area	Height	A/H	Conc.	Mark	ID#	Name	k'	Plate #	Plate Ht.	Tailing	Resolution	Sep.Factor	Area Ratio	Height Ratio	Conc. %	Norm Conc.
1	1,672	1,141	1,803	1300642	139788	9,304	0,000	   			0,000	710	211,156	0,000	0,000	0,000	0	0	0,000	0,000
2	1,867	1,803	2,016	629136	79069	7,957	0,000	 V 			0,117	783	191,555	0,000	0,752	0,000	0	0	0,000	0,000
3	2,094	2,016	2,549	1203298	86424	13,923	0,000	 V 			0,253	631	237,870	0,000	0,758	2,168	0	0	0,000	0,000
4	2,644	2,549	2,784	267498	28918	9,250	0,000	 V 			0,581	1255	119,489	0,000	1,740	2,303	0	0	0,000	0,000
5	2,894	2,784	3,136	330179	27743	11,901	0,000	 V 			0,731	1317	113,863	0,000	0,807	1,256	0	0	0,000	0,000
6	3,304	3,136	3,616	1258397	138939	9,057	0,000	 V 			0,976	3159	47,482	0,000	1,482	1,336	0	0	0,000	0,000
7	3,833	3,616	4,000	179622	9678	18,560	0,000	 V 			1,292	375	399,830	0,000	1,029	1,324	0	0	0,000	0,000
8	4,140	4,000	4,256	207161	20589	10,062	0,000	 V 			1,476	2648	56,645	0,000	0,553	1,142	0	0	0,000	0,000
9	4,389	4,256	4,619	297922	20898	14,256	0,000	 V 			1,625	1580	94,959	0,000	0,652	1,101	0	0	0,000	0,000
10	4,687	4,619	4,832	81435	7317	11,130	0,000	 V 			1,803	328	458,012	0,000	0,403	1,109	0	0	0,000	0,000
11	5,032	4,832	5,280	138875	5663	24,522	0,000	 V 			2,009	72	2091,479	0,000	0,202	1,115	0	0	0,000	0,000
12	5,527	5,280	5,877	207065	9094	22,770	0,000	 V 			2,305	1624	92,380	0,000	0,338	1,147	0	0	0,000	0,000
13	6,064	5,877	6,187	160474	12507	12,831	0,000	 V 			2,626	2870	52,257	0,000	1,072	1,139	0	0	0,000	0,000
14	6,435	6,187	6,709	5219140	474096	11,009	0,000	 V 			2,848	7431	20,185	1,143	0,987	1,084	0	0	0,000	0,000
15	6,866	6,709	7,499	1550517	83166	18,644	0,000	 V 			3,106	4579	32,760	0,000	1,225	1,091	0	0	0,000	0,000
16	7,605	7,499	7,957	262793	10559	24,888	0,000	 V 			3,548	176	852,724	0,000	0,547	1,142	0	0	0,000	0,000
17	8,226	7,957	8,352	313744	18688	16,788	0,000	 V 			3,920	2404	62,401	0,000	0,420	1,105	0	0	0,000	0,000
18	8,601	8,352	8,853	1190313	88820	13,401	0,000	 V 			4,144	10879	13,788	0,000	0,749	1,057	0	0	0,000	0,000
19	9,005	8,853	9,269	366138	19759	18,530	0,000	 V 			4,385	2465	60,855	0,000	0,765	1,058	0	0	0,000	0,000
20	9,555	9,269	9,877	784320	44955	17,447	0,000	 V 			4,714	11637	12,889	0,000	1,019	1,075	0	0	0,000	0,000
21	10,194	9,877	10,347	525530	21227	24,757	0,000	 V 			5,096	362	414,029	0,000	0,512	1,081	0	0	0,000	0,000
22	10,517	10,347	10,816	658179	39701	16,578	0,000	 V 			5,290	8931	16,796	0,000	0,250	1,038	0	0	0,000	0,000
23	11,162	10,816	11,765	8376667	676253	12,387	0,000	SV 			5,675	19500	7,692	1,163	1,686	1,073	0	0	0,000	0,000
24	11,656	11,541	11,755	7142	1059	6,742	0,000	T  			5,971	58241	2,576	0,960	1,927	1,052	0	0	0,000	0,000
25	12,170	11,765	12,640	4537147	374774	12,106	0,000	SV 			6,278	26956	5,565	1,265	2,098	1,051	0	0	0,000	0,000
26	12,555	12,501	12,640	1270	298	4,265	0,000	T  			6,508	145435	1,031	1,259	1,796	1,037	0	0	0,000	0,000
27	12,820	12,640	13,013	538551	37571	14,334	0,000	 V 			6,667	16277	9,215	0,000	0,996	1,024	0	0	0,000	0,000
28	13,171	13,013	14,880	11410017	565931	20,162	0,000	SV 			6,877	14719	10,191	3,712	0,840	1,031	0	0	0,000	0,000
29	14,261	14,080	14,528	153785	13165	11,681	0,000	T  			7,529	30003	5,000	1,268	2,854	1,095	0	0	0,000	0,000
30	14,759	14,528	14,880	35310	3006	11,745	0,000	T  			7,826	32434	4,625	0,758	1,514	1,040	0	0	0,000	0,000
31	15,196	14,880	15,563	2499766	159971	15,626	0,000	 V 			8,088	31346	4,785	0,000	1,303	1,033	0	0	0,000	0,000
32	15,675	15,563	15,872	439382	27154	16,181	0,000	 V 			8,374	3158	47,494	0,000	0,656	1,035	0	0	0,000	0,000
33	16,109	15,872	16,619	1953573	118557	16,478	0,000	 V 			8,634	36148	4,150	0,000	0,597	1,031	0	0	0,000	0,000
34	17,163	16,619	17,440	1671410	67956	24,595	0,000	 V 			9,264	19208	7,809	0,000	2,528	1,073	0	0	0,000	0,000
35	17,601	17,440	17,707	423942	27971	15,156	0,000	 V 			9,526	841	178,395	0,000	0,300	1,028	0	0	0,000	0,000
36	17,890	17,707	18,165	863205	46034	18,752	0,000	 V 			9,699	16924	8,863	0,000	0,194	1,018	0	0	0,000	0,000
37	18,313	18,165	18,432	337312	21424	15,745	0,000	 V 			9,952	120	1251,780	0,000	0,117	1,026	0	0	0,000	0,000
38	18,834	18,432	19,051	1181436	52921	22,324	0,000	 V 			10,264	19996	7,501	0,000	0,144	1,031	0	0	0,000	0,000
39	19,217	19,051	19,467	656987	30298	21,684	0,000	 V 			10,492	3702	40,518	0,000	0,426	1,022	0	0	0,000	0,000
40	19,679	19,467	19,893	1550989	121963	12,717	0,000	 V 			10,769	58931	2,545	0,000	0,583	1,026	0	0	0,000	0,000
41	19,972	19,893	20,160	432562	30797	14,046	0,000	 V 			10,944	1799	83,400	0,000	0,265	1,016	0	0	0,000	0,000
42	20,394	20,160	20,928	5187471	436959	11,872	0,000	 V 			11,196	78664	1,907	1,580	0,388	1,023	0	0	0,000	0,000
43	21,111	20,928	21,216	379593	23548	16,120	0,000	 V 			11,625	2592	57,877	0,000	0,736	1,038	0	0	0,000	0,000
44	21,616	21,216	21,952	3582644	244126	14,675	0,000	 V 			11,927	65531	2,289	0,000	0,506	1,026	0	0	0,000	0,000
45	22,128	21,952	22,261	396527	23315	17,007	0,000	 V 			12,233	3882	38,637	0,000	0,582	1,026	0	0	0,000	0,000
46	22,437	22,261	22,560	365878	21214	17,247	0,000	 V 			12,418	822	182,588	0,000	0,136	1,015	0	0	0,000	0,000
47	22,784	22,560	23,125	2993188	244635	12,235	0,000	 V 			12,626	88311	1,699	0,000	0,202	1,017	0	0	0,000	0,000
48	23,282	23,125	23,509	476525	21780	21,879	0,000	 V 			12,923	1756	85,419	0,000	0,393	1,024	0	0	0,000	0,000
49	23,632	23,509	23,893	422676	22014	19,200	0,000	 V 			13,133	6956	21,565	0,000	0,209	1,016	0	0	0,000	0,000
50	24,157	23,893	24,523	1234747	68281	18,083	0,000	 V 			13,447	52289	2,869	0,000	0,675	1,024	0	0	0,000	0,000
51	24,675	24,523	24,843	311012	18975	16,390	0,000	 V 			13,757	12829	11,692	0,000	0,801	1,023	0	0	0,000	0,000
52	25,131	24,843	25,387	507130	19759	25,666	0,000	 V 			14,029	9637	15,566	0,000	0,481	1,020	0	0	0,000	0,000
53	25,591	25,387	25,664	232693	15666	14,854	0,000	 V 			14,304	3098	48,423	0,000	0,321	1,020	0	0	0,000	0,000
54	25,804	25,664	25,856	193694	17841	10,857	0,000	 V 			14,432	728	206,058	0,000	0,075	1,009	0	0	0,000	0,000
55	25,899	25,856	26,507	482317	17691	27,263	0,000	 V 			14,488	131	1145,719	0,000	0,015	1,004	0	0	0,000	0,000
56	26,699	26,507	26,752	144866	9985	14,509	0,000	 V 			14,967	32	4687,438	0,000	0,057	1,033	0	0	0,000	0,000
57	26,971	26,752	27,307	407849	17039	23,936	0,000	 V 			15,129	22640	6,625	0,000	0,028	1,011	0	0	0,000	0,000
58	27,433	27,307	27,531	124553	9656	12,899	0,000	 V 			15,406	2328	64,432	0,000	0,309	1,018	0	0	0,000	0,000
59	27,637	27,531	27,819	152147	9617	15,821	0,000	 V 			15,528	3839	39,076	0,000	0,100	1,008	0	0	0,000	0,000
60	27,900	27,819	28,064	108187	7709	14,034	0,000	 V 			15,685	329	455,401	0,000	0,066	1,010	0	0	0,000	0,000
61	28,149	28,064	28,213	60693	6790	8,938	0,000	 V 			15,834	129	1164,056	0,000	0,031	1,010	0	0	0,000	0,000
62	28,348	28,213	28,533	128666	6865	18,743	0,000	 V 			15,953	374	401,015	0,000	0,025	1,008	0	0	0,000	0,000
63	28,664	28,533	29,120	215377	6777	31,780	0,000	 V 			16,142	1601	93,704	0,000	0,072	1,012	0	0	0,000	0,000
64	29,337	29,120	29,771	256807	10981	23,387	0,000	 V 			16,544	42415	3,537	0,000	0,391	1,025	0	0	0,000	0,000
65	30,142	29,771	30,315	138765	4926	28,170	0,000	 V 			17,026	6461	23,215	0,000	0,778	1,029	0	0	0,000	0,000
66	30,656	30,315	30,901	145317	5789	25,103	0,000	 V 			17,333	16724	8,969	0,000	0,420	1,018	0	0	0,000	0,000
67	31,073	30,901	31,360	63028	3063	20,576	0,000	 V 			17,583	21560	6,957	0,000	0,465	1,014	0	0	0,000	0,000
68	31,456	31,360	31,669	21634	1404	15,412	0,000	 V 			17,812	0	0,000	0,000	0,000	1,013	0	0	0,000	0,000
69	31,841	31,669	32,245	17712	1048	16,898	0,000	 V 			18,042	49172	3,051	0,000	0,000	1,013	0	0	0,000	0,000
70	32,667	32,501	32,747	4762	533	8,937	0,000	   			18,536	376629	0,398	0,767	2,098	1,027	0	0	0,000	0,000
71	33,824	32,789	33,867	388707	9854	39,446	0,000	   			19,228	3348	44,806	0,000	0,907	1,037	0	0	0,000	0,000
72	33,975	33,867	34,133	157983	11550	13,678	0,000	 V 			19,319	27146	5,526	0,000	0,096	1,005	0	0	0,000	0,000
73	34,233	34,133	34,293	80961	9024	8,972	0,000	 V 			19,472	17522	8,560	0,000	0,277	1,008	0	0	0,000	0,000
74	34,340	34,293	34,389	47678	8554	5,574	0,000	 V 			19,536	11543	12,995	0,000	0,093	1,003	0	0	0,000	0,000
75	34,509	34,389	34,645	125935	10195	12,353	0,000	 V 			19,638	55125	2,721	0,000	0,181	1,005	0	0	0,000	0,000
76	34,814	34,645	34,912	101598	6869	14,790	0,000	 V 			19,820	10147	14,783	0,000	0,309	1,009	0	0	0,000	0,000
77	35,069	34,912	35,413	958900	120722	7,943	0,000	 V 			19,973	701347	0,214	0,000	0,329	1,008	0	0	0,000	0,000
78	35,487	35,413	35,563	145332	20630	7,045	0,000	 V 			20,223	201636	0,744	0,000	1,730	1,013	0	0	0,000	0,000
79	35,593	35,563	35,733	112175	14723	7,619	0,000	 V 			20,286	85859	1,747	0,000	0,264	1,003	0	0	0,000	0,000
80	35,849	35,733	35,979	128657	10393	12,379	0,000	 V 			20,439	51500	2,913	0,000	0,459	1,008	0	0	0,000	0,000
81	36,035	35,979	36,096	47337	6923	6,837	0,000	 V 			20,551	3074	48,800	0,000	0,115	1,005	0	0	0,000	0,000
82	36,334	36,096	36,491	152199	7853	19,381	0,000	 V 			20,729	15971	9,392	0,000	0,159	1,009	0	0	0,000	0,000
83	36,784	36,491	36,939	102471	4081	25,108	0,000	 V 			20,999	1156	129,770	0,000	0,164	1,013	0	0	0,000	0,000
84	37,043	36,939	37,152	31244	3294	9,486	0,000	 V 			21,153	132292	1,134	0,000	0,109	1,007	0	0	0,000	0,000
85	37,231	37,152	37,376	10745	1292	8,318	0,000	 V 			21,266	41296	3,632	0,000	0,330	1,005	0	0	0,000	0,000
86	37,696	37,579	37,792	2807	362	7,754	0,000	   			21,544	283715	0,529	0,000	0,915	1,013	0	0	0,000	0,000
87	37,926	37,792	38,080	9554	1254	7,619	0,000	 V 			21,681	491295	0,305	0,000	0,920	1,006	0	0	0,000	0,000
88	38,917	38,667	39,979	1049694	37267	28,167	0,000	   			22,274	351353	0,427	3,014	4,136	1,027	0	0	0,000	0,000

[Compound Results(PDA)]
# of IDs	0

[PDA Multi Chromatogram(Ch1)]
# of Points	      4689
Interval(msec)	640
Start Time(min)	0
End Time(min)	50,0053
Intensity Units	mAU
Intensity Multiplier	1
Type	MultiChrom
Wavelength(nm)	254
Bandwidth(nm)	4
R.Time (min)	Intensity
0,00000	0
0,01067	0
0,02133	0
0,03200	0
0,04267	0
0,05333	0
0,06400	0
0,07467	0
0,08533	0
0,09600	0
0,10667	0
0,11733	3
0,12800	8
0,13867	-2
0,14933	4
0,16000	6
0,17067	-3
0,18133	-5
0,19200	7
0,20267	16
0,21333	6
0,22400	8
0,23467	5
0,24533	1
0,25600	-8
0,26667	-0
0,27733	-1
0,28800	-6
0,29867	1
0,30933	-1
0,32000	-4
0,33067	5
0,34133	-2
0,35200	-9
0,36267	7
0,37333	2
0,38400	-4
0,39467	-5
0,40533	0
0,41600	3
0,42667	5
0,43733	5
0,44800	3
0,45867	4
0,46933	2
0,48000	-2
0,49067	4
0,50133	6
0,51200	0
0,52267	0
0,53333	3
0,54400	3
0,55467	-3
0,56533	-2
0,57600	0
0,58667	2
0,59733	1
0,60800	6
0,61867	1
0,62933	-1
0,64000	-2
0,65067	-4
0,66133	-4
0,67200	-4
0,68267	-8
0,69333	-9
0,70400	-5
0,71467	-0
0,72533	4
0,73600	5
0,74667	-4
0,75733	-5
0,76800	-1
0,77867	1
0,78933	-1
0,80000	1
0,81067	3
0,82133	1
0,83200	-2
0,84267	-2
0,85333	3
0,86400	1
0,87467	-1
0,88533	5
0,89600	1
0,90667	-3
0,91733	4
0,92800	3
0,93867	14
0,94933	9
0,96000	2
0,97067	-0
0,98133	13
0,99200	12
1,00267	6
1,01333	5
1,02400	6
1,03467	6
1,04533	7
1,05600	4
1,06667	5
1,07733	1
1,08800	-3
1,09867	3
1,10933	0
1,12000	-7
1,13067	-3
1,14133	1
1,15200	15
1,16267	25
1,17333	40
1,18400	70
1,19467	112
1,20533	175
1,21600	263
1,22667	379
1,23733	505
1,24800	643
1,25867	780
1,26933	924
1,28000	1057
1,29067	1182
1,30133	1323
1,31200	1473
1,32267	1638
1,33333	1843
1,34400	2055
1,35467	2269
1,36533	2481
1,37600	2810
1,38667	3504
1,39733	4815
1,40800	6599
1,41867	8481
1,42933	9953
1,44000	10860
1,45067	11462
1,46133	12287
1,47200	13612
1,48267	15217
1,49333	16478
1,50400	16910
1,51467	16746
1,52533	16490
1,53600	16608
1,54667	17286
1,55733	18443
1,56800	19769
1,57867	21120
1,58933	23417
1,60000	29595
1,61067	42907
1,62133	63775
1,63200	88581
1,64267	111944
1,65333	129334
1,66400	138556
1,67467	140094
1,68533	135780
1,69600	127316
1,70667	116154
1,71733	103673
1,72800	91766
1,73867	82527
1,74933	75946
1,76000	68788
1,77067	59821
1,78133	50803
1,79200	44005
1,80267	40606
1,81333	41097
1,82400	46238
1,83467	56034
1,84533	67640
1,85600	76487
1,86667	79486
1,87733	76794
1,88800	70690
1,89867	63509
1,90933	56782
1,92000	51128
1,93067	46672
1,94133	43095
1,95200	39880
1,96267	36592
1,97333	33164
1,98400	29796
1,99467	26889
2,00533	24969
2,01600	24923
2,02667	28015
2,03733	35407
2,04800	46930
2,05867	60731
2,06933	73615
2,08000	82829
2,09067	86972
2,10133	86249
2,11200	82103
2,12267	76551
2,13333	71644
2,14400	68731
2,15467	67955
2,16533	68249
2,17600	67989
2,18667	66002
2,19733	62021
2,20800	56652
2,21867	50771
2,22933	45226
2,24000	40447
2,25067	36612
2,26133	33708
2,27200	31646
2,28267	30237
2,29333	29253
2,30400	28382
2,31467	27354
2,32533	26038
2,33600	24442
2,34667	22703
2,35733	21004
2,36800	19503
2,37867	18253
2,38933	17275
2,40000	16517
2,41067	15952
2,42133	15546
2,43200	15282
2,44267	15145
2,45333	15099
2,46400	15081
2,47467	15024
2,48533	14881
2,49600	14631
2,50667	14289
2,51733	13907
2,52800	13539
2,53867	13294
2,54933	13273
2,56000	13620
2,57067	14547
2,58133	16200
2,59200	18619
2,60267	21634
2,61333	24784
2,62400	27508
2,63467	29268
2,64533	29782
2,65600	29071
2,66667	27384
2,67733	25133
2,68800	22691
2,69867	20347
2,70933	18271
2,72000	16550
2,73067	15206
2,74133	14209
2,75200	13523
2,76267	13102
2,77333	12903
2,78400	12896
2,79467	13101
2,80533	13648
2,81600	14664
2,82667	16265
2,83733	18460
2,84800	21126
2,85867	23877
2,86933	26294
2,88000	27991
2,89067	28750
2,90133	28538
2,91200	27480
2,92267	25793
2,93333	23744
2,94400	21569
2,95467	19483
2,96533	17636
2,97600	16127
2,98667	14947
2,99733	14062
3,00800	13383
3,01867	12823
3,02933	12280
3,04000	11741
3,05067	11194
3,06133	10654
3,07200	10156
3,08267	9717
3,09333	9367
3,10400	9092
3,11467	8897
3,12533	8776
3,13600	8751
3,14667	8846
3,15733	9137
3,16800	9781
3,17867	11059
3,18933	13420
3,20000	17452
3,21067	23915
3,22133	33468
3,23200	46505
3,24267	62789
3,25333	81289
3,26400	100320
3,27467	117547
3,28533	130863
3,29600	138613
3,30667	140181
3,31733	135899
3,32800	126858
3,33867	114670
3,34933	100840
3,36000	86764
3,37067	73376
3,38133	61339
3,39200	50875
3,40267	42059
3,41333	34800
3,42400	28942
3,43467	24304
3,44533	20657
3,45600	17881
3,46667	15789
3,47733	14298
3,48800	13295
3,49867	12667
3,50933	12285
3,52000	11931
3,53067	11384
3,54133	10625
3,55200	9775
3,56267	8995
3,57333	8347
3,58400	7883
3,59467	7568
3,60533	7395
3,61600	7321
3,62667	7337
3,63733	7430
3,64800	7568
3,65867	7745
3,66933	7949
3,68000	8156
3,69067	8363
3,70133	8573
3,71200	8785
3,72267	9009
3,73333	9236
3,74400	9483
3,75467	9742
3,76533	10021
3,77600	10308
3,78667	10577
3,79733	10825
3,80800	11025
3,81867	11159
3,82933	11223
3,84000	11208
3,85067	11110
3,86133	10943
3,87200	10713
3,88267	10438
3,89333	10137
3,90400	9824
3,91467	9505
3,92533	9209
3,93600	8922
3,94667	8672
3,95733	8432
3,96800	8233
3,97867	8071
3,98933	7956
4,00000	7908
4,01067	7947
4,02133	8119
4,03200	8487
4,04267	9111
4,05333	10060
4,06400	11396
4,07467	13087
4,08533	15070
4,09600	17169
4,10667	19159
4,11733	20800
4,12800	21885
4,13867	22311
4,14933	22068
4,16000	21263
4,17067	20040
4,18133	18594
4,19200	17094
4,20267	15700
4,21333	14481
4,22400	13521
4,23467	12822
4,24533	12399
4,25600	12268
4,26667	12405
4,27733	12836
4,28800	13535
4,29867	14484
4,30933	15625
4,32000	16915
4,33067	18277
4,34133	19603
4,35200	20790
4,36267	21757
4,37333	22425
4,38400	22763
4,39467	22756
4,40533	22433
4,41600	21827
4,42667	21003
4,43733	20020
4,44800	18966
4,45867	17862
4,46933	16777
4,48000	15723
4,49067	14744
4,50133	13826
4,51200	12980
4,52267	12213
4,53333	11506
4,54400	10876
4,55467	10310
4,56533	9817
4,57600	9405
4,58667	9087
4,59733	8869
4,60800	8743
4,61867	8699
4,62933	8741
4,64000	8862
4,65067	9016
4,66133	9167
4,67200	9290
4,68267	9352
4,69333	9343
4,70400	9254
4,71467	9084
4,72533	8859
4,73600	8606
4,74667	8333
4,75733	8083
4,76800	7853
4,77867	7664
4,78933	7524
4,80000	7416
4,81067	7344
4,82133	7312
4,83200	7302
4,84267	7321
4,85333	7355
4,86400	7393
4,87467	7434
4,88533	7476
4,89600	7517
4,90667	7568
4,91733	7612
4,92800	7658
4,93867	7696
4,94933	7739
4,96000	7773
4,97067	7809
4,98133	7839
4,99200	7870
5,00267	7880
5,01333	7892
5,02400	7895
5,03467	7897
5,04533	7890
5,05600	7871
5,06667	7829
5,07733	7793
5,08800	7746
5,09867	7682
5,10933	7609
5,12000	7533
5,13067	7444
5,14133	7364
5,15200	7276
5,16267	7193
5,17333	7104
5,18400	7020
5,19467	6939
5,20533	6867
5,21600	6800
5,22667	6740
5,23733	6687
5,24800	6643
5,25867	6606
5,26933	6579
5,28000	6557
5,29067	6562
5,30133	6557
5,31200	6572
5,32267	6609
5,33333	6648
5,34400	6710
5,35467	6794
5,36533	6909
5,37600	7043
5,38667	7227
5,39733	7463
5,40800	7735
5,41867	8068
5,42933	8448
5,44000	8877
5,45067	9331
5,46133	9798
5,47200	10249
5,48267	10676
5,49333	11047
5,50400	11340
5,51467	11532
5,52533	11612
5,53600	11571
5,54667	11424
5,55733	11197
5,56800	10887
5,57867	10536
5,58933	10167
5,60000	9797
5,61067	9463
5,62133	9128
5,63200	8837
5,64267	8569
5,65333	8330
5,66400	8117
5,67467	7924
5,68533	7759
5,69600	7626
5,70667	7512
5,71733	7424
5,72800	7347
5,73867	7297
5,74933	7257
5,76000	7213
5,77067	7182
5,78133	7150
5,79200	7121
5,80267	7093
5,81333	7052
5,82400	7001
5,83467	6956
5,84533	6916
5,85600	6872
5,86667	6845
5,87733	6833
5,88800	6835
5,89867	6893
5,90933	6996
5,92000	7166
5,93067	7428
5,94133	7792
5,95200	8272
5,96267	8891
5,97333	9626
5,98400	10473
5,99467	11380
6,00533	12322
6,01600	13226
6,02667	14021
6,03733	14667
6,04800	15112
6,05867	15333
6,06933	15332
6,08000	15118
6,09067	14745
6,10133	14246
6,11200	13688
6,12267	13106
6,13333	12555
6,14400	12039
6,15467	11615
6,16533	11282
6,17600	11052
6,18667	10956
6,19733	11034
6,20800	11339
6,21867	11980
6,22933	13118
6,24000	14978
6,25067	17912
6,26133	22396
6,27200	29047
6,28267	38637
6,29333	51977
6,30400	70018
6,31467	93432
6,32533	122955
6,33600	158369
6,34667	199377
6,35733	244455
6,36800	291904
6,37867	338906
6,38933	382748
6,40000	420494
6,41067	449833
6,42133	469004
6,43200	477134
6,44267	474250
6,45333	461089
6,46400	438986
6,47467	409833
6,48533	375494
6,49600	338157
6,50667	299433
6,51733	261190
6,52800	224532
6,53867	190627
6,54933	159940
6,56000	132915
6,57067	109558
6,58133	89830
6,59200	73389
6,60267	59944
6,61333	49073
6,62400	40379
6,63467	33531
6,64533	28166
6,65600	24015
6,66667	20863
6,67733	18567
6,68800	17018
6,69867	16199
6,70933	16160
6,72000	17016
6,73067	18945
6,74133	22104
6,75200	26620
6,76267	32459
6,77333	39498
6,78400	47331
6,79467	55499
6,80533	63456
6,81600	70665
6,82667	76751
6,83733	81413
6,84800	84568
6,85867	86203
6,86933	86452
6,88000	85479
6,89067	83511
6,90133	80778
6,91200	77481
6,92267	73822
6,93333	69959
6,94400	66038
6,95467	62164
6,96533	58446
6,97600	54939
6,98667	51676
6,99733	48703
7,00800	45996
7,01867	43563
7,02933	41348
7,04000	39340
7,05067	37492
7,06133	35773
7,07200	34156
7,08267	32617
7,09333	31148
7,10400	29741
7,11467	28402
7,12533	27129
7,13600	25925
7,14667	24798
7,15733	23762
7,16800	22817
7,17867	21965
7,18933	21196
7,20000	20541
7,21067	19963
7,22133	19458
7,23200	19041
7,24267	18706
7,25333	18442
7,26400	18246
7,27467	18094
7,28533	17992
7,29600	17915
7,30667	17853
7,31733	17781
7,32800	17682
7,33867	17549
7,34933	17367
7,36000	17123
7,37067	16835
7,38133	16501
7,39200	16120
7,40267	15727
7,41333	15328
7,42400	14939
7,43467	14589
7,44533	14276
7,45600	14020
7,46667	13830
7,47733	13694
7,48800	13621
7,49867	13610
7,50933	13644
7,52000	13704
7,53067	13800
7,54133	13902
7,55200	13993
7,56267	14079
7,57333	14164
7,58400	14220
7,59467	14261
7,60533	14269
7,61600	14259
7,62667	14223
7,63733	14155
7,64800	14080
7,65867	13992
7,66933	13888
7,68000	13782
7,69067	13691
7,70133	13598
7,71200	13524
7,72267	13463
7,73333	13411
7,74400	13396
7,75467	13392
7,76533	13391
7,77600	13391
7,78667	13380
7,79733	13364
7,80800	13338
7,81867	13282
7,82933	13208
7,84000	13102
7,85067	12975
7,86133	12828
7,87200	12656
7,88267	12467
7,89333	12268
7,90400	12093
7,91467	11932
7,92533	11790
7,93600	11677
7,94667	11606
7,95733	11567
7,96800	11573
7,97867	11611
7,98933	11684
8,00000	11789
8,01067	11922
8,02133	12070
8,03200	12236
8,04267	12439
8,05333	12672
8,06400	12958
8,07467	13314
8,08533	13747
8,09600	14273
8,10667	14896
8,11733	15618
8,12800	16434
8,13867	17321
8,14933	18252
8,16000	19204
8,17067	20125
8,18133	20969
8,19200	21694
8,20267	22250
8,21333	22609
8,22400	22756
8,23467	22699
8,24533	22455
8,25600	22053
8,26667	21543
8,27733	20989
8,28800	20423
8,29867	19894
8,30933	19427
8,32000	19066
8,33067	18821
8,34133	18707
8,35200	18701
8,36267	18805
8,37333	18994
8,38400	19237
8,39467	19512
8,40533	19800
8,41600	20082
8,42667	20392
8,43733	20775
8,44800	21342
8,45867	22270
8,46933	23755
8,48000	26084
8,49067	29493
8,50133	34224
8,51200	40331
8,52267	47769
8,53333	56171
8,54400	65022
8,55467	73611
8,56533	81227
8,57600	87248
8,58667	91274
8,59733	93102
8,60800	92798
8,61867	90584
8,62933	86854
8,64000	82002
8,65067	76458
8,66133	70602
8,67200	64729
8,68267	59046
8,69333	53725
8,70400	48807
8,71467	44343
8,72533	40305
8,73600	36700
8,74667	33476
8,75733	30610
8,76800	28095
8,77867	25894
8,78933	24021
8,80000	22457
8,81067	21213
8,82133	20254
8,83200	19573
8,84267	19148
8,85333	18959
8,86400	18982
8,87467	19190
8,88533	19533
8,89600	19991
8,90667	20524
8,91733	21110
8,92800	21693
8,93867	22258
8,94933	22793
8,96000	23274
8,97067	23672
8,98133	23976
8,99200	24178
9,00267	24273
9,01333	24229
9,02400	24063
9,03467	23757
9,04533	23320
9,05600	22763
9,06667	22093
9,07733	21338
9,08800	20531
9,09867	19691
9,10933	18869
9,12000	18072
9,13067	17309
9,14133	16618
9,15200	15998
9,16267	15460
9,17333	14997
9,18400	14611
9,19467	14304
9,20533	14046
9,21600	13857
9,22667	13723
9,23733	13630
9,24800	13577
9,25867	13550
9,26933	13548
9,28000	13555
9,29067	13571
9,30133	13599
9,31200	13619
9,32267	13654
9,33333	13684
9,34400	13716
9,35467	13780
9,36533	13864
9,37600	14025
9,38667	14288
9,39733	14707
9,40800	15351
9,41867	16295
9,42933	17618
9,44000	19384
9,45067	21676
9,46133	24494
9,47200	27800
9,48267	31495
9,49333	35394
9,50400	39287
9,51467	42885
9,52533	45948
9,53600	48218
9,54667	49519
9,55733	49784
9,56800	49026
9,57867	47377
9,58933	45034
9,60000	42260
9,61067	39284
9,62133	36360
9,63200	33683
9,64267	31371
9,65333	29491
9,66400	28063
9,67467	27048
9,68533	26376
9,69600	25959
9,70667	25709
9,71733	25521
9,72800	25346
9,73867	25128
9,74933	24823
9,76000	24424
9,77067	23945
9,78133	23401
9,79200	22828
9,80267	22247
9,81333	21709
9,82400	21241
9,83467	20869
9,84533	20589
9,85600	20420
9,86667	20331
9,87733	20318
9,88800	20383
9,89867	20495
9,90933	20644
9,92000	20825
9,93067	21040
9,94133	21264
9,95200	21500
9,96267	21748
9,97333	21995
9,98400	22236
9,99467	22443
10,00533	22630
10,01600	22775
10,02667	22864
10,03733	22922
10,04800	22962
10,05867	23008
10,06933	23072
10,08000	23177
10,09067	23352
10,10133	23611
10,11200	23937
10,12267	24336
10,13333	24770
10,14400	25214
10,15467	25635
10,16533	25993
10,17600	26261
10,18667	26404
10,19733	26424
10,20800	26334
10,21867	26163
10,22933	25925
10,24000	25672
10,25067	25433
10,26133	25232
10,27200	25089
10,28267	24987
10,29333	24922
10,30400	24878
10,31467	24836
10,32533	24807
10,33600	24764
10,34667	24752
10,35733	24810
10,36800	25016
10,37867	25409
10,38933	26053
10,40000	26997
10,41067	28280
10,42133	29898
10,43200	31828
10,44267	33975
10,45333	36258
10,46400	38529
10,47467	40650
10,48533	42476
10,49600	43887
10,50667	44778
10,51733	45083
10,52800	44788
10,53867	43925
10,54933	42554
10,56000	40773
10,57067	38702
10,58133	36462
10,59200	34163
10,60267	31900
10,61333	29744
10,62400	27767
10,63467	25989
10,64533	24442
10,65600	23111
10,66667	21988
10,67733	21038
10,68800	20245
10,69867	19593
10,70933	19055
10,72000	18621
10,73067	18255
10,74133	17961
10,75200	17729
10,76267	17550
10,77333	17423
10,78400	17331
10,79467	17282
10,80533	17258
10,81600	17253
10,82667	17260
10,83733	17277
10,84800	17296
10,85867	17319
10,86933	17340
10,88000	17369
10,89067	17430
10,90133	17570
10,91200	17839
10,92267	18353
10,93333	19265
10,94400	20808
10,95467	23344
10,96533	27358
10,97600	33535
10,98667	42682
10,99733	55829
11,00800	73913
11,01867	98030
11,02933	128843
11,04000	166925
11,05067	211984
11,06133	263581
11,07200	320321
11,08267	380525
11,09333	441847
11,10400	501453
11,11467	556780
11,12533	604717
11,13600	642896
11,14667	669058
11,15733	682005
11,16800	681256
11,17867	667197
11,18933	641285
11,20000	605252
11,21067	561620
11,22133	512650
11,23200	461111
11,24267	409024
11,25333	358385
11,26400	310574
11,27467	266530
11,28533	226973
11,29600	191990
11,30667	161710
11,31733	135751
11,32800	113915
11,33867	95680
11,34933	80656
11,36000	68295
11,37067	58235
11,38133	50065
11,39200	43484
11,40267	38168
11,41333	33915
11,42400	30501
11,43467	27793
11,44533	25662
11,45600	23993
11,46667	22704
11,47733	21722
11,48800	20995
11,49867	20471
11,50933	20115
11,52000	19896
11,53067	19777
11,54133	19748
11,55200	19783
11,56267	19870
11,57333	20003
11,58400	20168
11,59467	20342
11,60533	20515
11,61600	20685
11,62667	20841
11,63733	20945
11,64800	21015
11,65867	21027
11,66933	20997
11,68000	20923
11,69067	20818
11,70133	20684
11,71200	20539
11,72267	20401
11,73333	20277
11,74400	20205
11,75467	20155
11,76533	20151
11,77600	20165
11,78667	20213
11,79733	20275
11,80800	20343
11,81867	20404
11,82933	20453
11,84000	20479
11,85067	20503
11,86133	20530
11,87200	20567
11,88267	20609
11,89333	20671
11,90400	20749
11,91467	20855
11,92533	20983
11,93600	21143
11,94667	21334
11,95733	21611
11,96800	22067
11,97867	22843
11,98933	24172
12,00000	26448
12,01067	30161
12,02133	36023
12,03200	44812
12,04267	57525
12,05333	74929
12,06400	97772
12,07467	126112
12,08533	159690
12,09600	197106
12,10667	236599
12,11733	275504
12,12800	311289
12,13867	341346
12,14933	363700
12,16000	377090
12,17067	381105
12,18133	376072
12,19200	363088
12,20267	343493
12,21333	319105
12,22400	291422
12,23467	262198
12,24533	232666
12,25600	204117
12,26667	177264
12,27733	152771
12,28800	130851
12,29867	111705
12,30933	95233
12,32000	81285
12,33067	69600
12,34133	59918
12,35200	52005
12,36267	45560
12,37333	40349
12,38400	36161
12,39467	32842
12,40533	30231
12,41600	28199
12,42667	26653
12,43733	25497
12,44800	24658
12,45867	24080
12,46933	23706
12,48000	23480
12,49067	23363
12,50133	23325
12,51200	23343
12,52267	23383
12,53333	23423
12,54400	23462
12,55467	23482
12,56533	23465
12,57600	23422
12,58667	23355
12,59733	23269
12,60800	23179
12,61867	23087
12,62933	23005
12,64000	22960
12,65067	22967
12,66133	23070
12,67200	23293
12,68267	23676
12,69333	24280
12,70400	25157
12,71467	26349
12,72533	27890
12,73600	29803
12,74667	32005
12,75733	34428
12,76800	36915
12,77867	39292
12,78933	41383
12,80000	42998
12,81067	43985
12,82133	44275
12,83200	43849
12,84267	42771
12,85333	41147
12,86400	39112
12,87467	36833
12,88533	34451
12,89600	32120
12,90667	29949
12,91733	28009
12,92800	26326
12,93867	24936
12,94933	23816
12,96000	22948
12,97067	22290
12,98133	21825
12,99200	21498
13,00267	21308
13,01333	21289
13,02400	21657
13,03467	23156
13,04533	27806
13,05600	39827
13,06667	65886
13,07733	112216
13,08800	180621
13,09867	264147
13,10933	351068
13,12000	428665
13,13067	489824
13,14133	532355
13,15200	558147
13,16267	570511
13,17333	572836
13,18400	568032
13,19467	558102
13,20533	544606
13,21600	528532
13,22667	510620
13,23733	491428
13,24800	471345
13,25867	450833
13,26933	430111
13,28000	409524
13,29067	389151
13,30133	369295
13,31200	349980
13,32267	331374
13,33333	313483
13,34400	296383
13,35467	280037
13,36533	264505
13,37600	249730
13,38667	235746
13,39733	222517
13,40800	210012
13,41867	198225
13,42933	187090
13,44000	176636
13,45067	166803
13,46133	157596
13,47200	148934
13,48267	140835
13,49333	133213
13,50400	126093
13,51467	119397
13,52533	113125
13,53600	107235
13,54667	101741
13,55733	96604
13,56800	91808
13,57867	87331
13,58933	83184
13,60000	79358
13,61067	75819
13,62133	72573
13,63200	69576
13,64267	66831
13,65333	64296
13,66400	61971
13,67467	59826
13,68533	57841
13,69600	55988
13,70667	54283
13,71733	52695
13,72800	51235
13,73867	49896
13,74933	48716
13,76000	47699
13,77067	46847
13,78133	46169
13,79200	45659
13,80267	45290
13,81333	45035
13,82400	44841
13,83467	44642
13,84533	44390
13,85600	44014
13,86667	43480
13,87733	42764
13,88800	41846
13,89867	40758
13,90933	39526
13,92000	38207
13,93067	36846
13,94133	35491
13,95200	34179
13,96267	32970
13,97333	31874
13,98400	30905
13,99467	30074
14,00533	29383
14,01600	28813
14,02667	28367
14,03733	28023
14,04800	27774
14,05867	27609
14,06933	27529
14,08000	27529
14,09067	27608
14,10133	27799
14,11200	28093
14,12267	28522
14,13333	29109
14,14400	29847
14,15467	30775
14,16533	31880
14,17600	33118
14,18667	34447
14,19733	35813
14,20800	37137
14,21867	38346
14,22933	39355
14,24000	40115
14,25067	40572
14,26133	40719
14,27200	40567
14,28267	40158
14,29333	39544
14,30400	38789
14,31467	37963
14,32533	37117
14,33600	36278
14,34667	35503
14,35733	34791
14,36800	34126
14,37867	33520
14,38933	32961
14,40000	32400
14,41067	31855
14,42133	31307
14,43200	30752
14,44267	30204
14,45333	29661
14,46400	29148
14,47467	28680
14,48533	28285
14,49600	27966
14,50667	27746
14,51733	27623
14,52800	27590
14,53867	27678
14,54933	27821
14,56000	28035
14,57067	28293
14,58133	28571
14,59200	28854
14,60267	29117
14,61333	29362
14,62400	29560
14,63467	29729
14,64533	29862
14,65600	29976
14,66667	30086
14,67733	30219
14,68800	30362
14,69867	30525
14,70933	30686
14,72000	30877
14,73067	31045
14,74133	31176
14,75200	31264
14,76267	31275
14,77333	31198
14,78400	31051
14,79467	30804
14,80533	30500
14,81600	30160
14,82667	29802
14,83733	29461
14,84800	29144
14,85867	28896
14,86933	28715
14,88000	28626
14,89067	28643
14,90133	28760
14,91200	28977
14,92267	29303
14,93333	29737
14,94400	30267
14,95467	30898
14,96533	31641
14,97600	32496
14,98667	33511
14,99733	34719
15,00800	36175
15,01867	38004
15,02933	40317
15,04000	43310
15,05067	47171
15,06133	52146
15,07200	58393
15,08267	66157
15,09333	75437
15,10400	86223
15,11467	98206
15,12533	111048
15,13600	124097
15,14667	136697
15,15733	148019
15,16800	157340
15,17867	164039
15,18933	167676
15,20000	168038
15,21067	165186
15,22133	159392
15,23200	151200
15,24267	141198
15,25333	130109
15,26400	118529
15,27467	107119
15,28533	96326
15,29600	86535
15,30667	77924
15,31733	70609
15,32800	64524
15,33867	59590
15,34933	55630
15,36000	52493
15,37067	49966
15,38133	47902
15,39200	46168
15,40267	44654
15,41333	43273
15,42400	41972
15,43467	40736
15,44533	39530
15,45600	38359
15,46667	37226
15,47733	36155
15,48800	35155
15,49867	34242
15,50933	33461
15,52000	32803
15,53067	32287
15,54133	31930
15,55200	31749
15,56267	31729
15,57333	31856
15,58400	32123
15,59467	32515
15,60533	32997
15,61600	33531
15,62667	34074
15,63733	34580
15,64800	35017
15,65867	35330
15,66933	35496
15,68000	35494
15,69067	35317
15,70133	34967
15,71200	34485
15,72267	33890
15,73333	33229
15,74400	32542
15,75467	31850
15,76533	31180
15,77600	30555
15,78667	29994
15,79733	29506
15,80800	29089
15,81867	28740
15,82933	28456
15,84000	28239
15,85067	28088
15,86133	28015
15,87200	28000
15,88267	28065
15,89333	28222
15,90400	28475
15,91467	28878
15,92533	29463
15,93600	30331
15,94667	31597
15,95733	33396
15,96800	35942
15,97867	39426
15,98933	44064
16,00000	49955
16,01067	57244
16,02133	65793
16,03200	75424
16,04267	85675
16,05333	96041
16,06400	105822
16,07467	114361
16,08533	121035
16,09600	125384
16,10667	127148
16,11733	126288
16,12800	123020
16,13867	117740
16,14933	110894
16,16000	103093
16,17067	94821
16,18133	86605
16,19200	78751
16,20267	71567
16,21333	65186
16,22400	59663
16,23467	54966
16,24533	51036
16,25600	47771
16,26667	45054
16,27733	42816
16,28800	40930
16,29867	39350
16,30933	38000
16,32000	36852
16,33067	35842
16,34133	34951
16,35200	34145
16,36267	33434
16,37333	32784
16,38400	32188
16,39467	31644
16,40533	31161
16,41600	30729
16,42667	30349
16,43733	29996
16,44800	29700
16,45867	29448
16,46933	29236
16,48000	29060
16,49067	28907
16,50133	28776
16,51200	28665
16,52267	28563
16,53333	28468
16,54400	28373
16,55467	28291
16,56533	28210
16,57600	28143
16,58667	28068
16,59733	28029
16,60800	28006
16,61867	27995
16,62933	28025
16,64000	28094
16,65067	28190
16,66133	28320
16,67200	28501
16,68267	28711
16,69333	28961
16,70400	29224
16,71467	29515
16,72533	29805
16,73600	30086
16,74667	30357
16,75733	30584
16,76800	30789
16,77867	30953
16,78933	31073
16,80000	31167
16,81067	31207
16,82133	31237
16,83200	31258
16,84267	31271
16,85333	31308
16,86400	31402
16,87467	31552
16,88533	31790
16,89600	32132
16,90667	32595
16,91733	33218
16,92800	33977
16,93867	34888
16,94933	35925
16,96000	37094
16,97067	38374
16,98133	39750
16,99200	41217
17,00267	42781
17,01333	44467
17,02400	46305
17,03467	48336
17,04533	50567
17,05600	53049
17,06667	55784
17,07733	58740
17,08800	61858
17,09867	65034
17,10933	68143
17,12000	71038
17,13067	73534
17,14133	75465
17,15200	76704
17,16267	77152
17,17333	76733
17,18400	75486
17,19467	73445
17,20533	70750
17,21600	67513
17,22667	63945
17,23733	60171
17,24800	56394
17,25867	52754
17,26933	49360
17,28000	46285
17,29067	43602
17,30133	41310
17,31200	39416
17,32267	37883
17,33333	36675
17,34400	35752
17,35467	35048
17,36533	34522
17,37600	34137
17,38667	33858
17,39733	33648
17,40800	33501
17,41867	33391
17,42933	33334
17,44000	33332
17,45067	33369
17,46133	33474
17,47200	33648
17,48267	33889
17,49333	34205
17,50400	34570
17,51467	34994
17,52533	35446
17,53600	35897
17,54667	36317
17,55733	36691
17,56800	36995
17,57867	37225
17,58933	37367
17,60000	37419
17,61067	37390
17,62133	37296
17,63200	37152
17,64267	36971
17,65333	36767
17,66400	36561
17,67467	36358
17,68533	36180
17,69600	36043
17,70667	35970
17,71733	35981
17,72800	36120
17,73867	36413
17,74933	36907
17,76000	37664
17,77067	38686
17,78133	40002
17,79200	41584
17,80267	43407
17,81333	45397
17,82400	47491
17,83467	49546
17,84533	51468
17,85600	53133
17,86667	54438
17,87733	55294
17,88800	55647
17,89867	55470
17,90933	54794
17,92000	53644
17,93067	52111
17,94133	50277
17,95200	48259
17,96267	46131
17,97333	44001
17,98400	41943
17,99467	40011
18,00533	38254
18,01600	36693
18,02667	35339
18,03733	34197
18,04800	33252
18,05867	32478
18,06933	31871
18,08000	31398
18,09067	31044
18,10133	30773
18,11200	30578
18,12267	30440
18,13333	30339
18,14400	30282
18,15467	30252
18,16533	30250
18,17600	30279
18,18667	30326
18,19733	30399
18,20800	30489
18,21867	30591
18,22933	30706
18,24000	30826
18,25067	30945
18,26133	31048
18,27200	31137
18,28267	31201
18,29333	31246
18,30400	31269
18,31467	31280
18,32533	31263
18,33600	31221
18,34667	31174
18,35733	31130
18,36800	31069
18,37867	31023
18,38933	30977
18,40000	30937
18,41067	30907
18,42133	30902
18,43200	30896
18,44267	30927
18,45333	30963
18,46400	30999
18,47467	31064
18,48533	31123
18,49600	31170
18,50667	31211
18,51733	31242
18,52800	31265
18,53867	31279
18,54933	31311
18,56000	31372
18,57067	31477
18,58133	31651
18,59200	31900
18,60267	32250
18,61333	32725
18,62400	33322
18,63467	34027
18,64533	34843
18,65600	35749
18,66667	36757
18,67733	37870
18,68800	39091
18,69867	40435
18,70933	41943
18,72000	43622
18,73067	45511
18,74133	47584
18,75200	49826
18,76267	52201
18,77333	54600
18,78400	56932
18,79467	59053
18,80533	60836
18,81600	62163
18,82667	62930
18,83733	63076
18,84800	62589
18,85867	61519
18,86933	59898
18,88000	57866
18,89067	55513
18,90133	52987
18,91200	50407
18,92267	47894
18,93333	45518
18,94400	43365
18,95467	41452
18,96533	39792
18,97600	38406
18,98667	37265
18,99733	36355
19,00800	35648
19,01867	35135
19,02933	34802
19,04000	34613
19,05067	34571
19,06133	34659
19,07200	34862
19,08267	35174
19,09333	35567
19,10400	36041
19,11467	36584
19,12533	37160
19,13600	37749
19,14667	38362
19,15733	38935
19,16800	39462
19,17867	39921
19,18933	40285
19,20000	40537
19,21067	40664
19,22133	40672
19,23200	40562
19,24267	40333
19,25333	40026
19,26400	39637
19,27467	39195
19,28533	38704
19,29600	38199
19,30667	37680
19,31733	37156
19,32800	36628
19,33867	36108
19,34933	35590
19,36000	35088
19,37067	34608
19,38133	34157
19,39200	33736
19,40267	33361
19,41333	33013
19,42400	32712
19,43467	32469
19,44533	32274
19,45600	32136
19,46667	32079
19,47733	32124
19,48800	32321
19,49867	32730
19,50933	33461
19,52000	34645
19,53067	36449
19,54133	39079
19,55200	42757
19,56267	47668
19,57333	53952
19,58400	61633
19,59467	70656
19,60533	80703
19,61600	91376
19,62667	102054
19,63733	112060
19,64800	120677
19,65867	127265
19,66933	131333
19,68000	132603
19,69067	131064
19,70133	126941
19,71200	120623
19,72267	112727
19,73333	103817
19,74400	94539
19,75467	85380
19,76533	76804
19,77600	69072
19,78667	62346
19,79733	56678
19,80800	52049
19,81867	48390
19,82933	45579
19,84000	43501
19,85067	42020
19,86133	41058
19,87200	40479
19,88267	40227
19,89333	40197
19,90400	40332
19,91467	40557
19,92533	40824
19,93600	41092
19,94667	41337
19,95733	41520
19,96800	41605
19,97867	41591
19,98933	41443
20,00000	41180
20,01067	40793
20,02133	40265
20,03200	39624
20,04267	38894
20,05333	38077
20,06400	37206
20,07467	36305
20,08533	35419
20,09600	34569
20,10667	33774
20,11733	33053
20,12800	32445
20,13867	31943
20,14933	31591
20,16000	31423
20,17067	31480
20,18133	31869
20,19200	32720
20,20267	34247
20,21333	36765
20,22400	40657
20,23467	46532
20,24533	55019
20,25600	66977
20,26667	83117
20,27733	104290
20,28800	130887
20,29867	163134
20,30933	200372
20,32000	241654
20,33067	284951
20,34133	328024
20,35200	368019
20,36267	402096
20,37333	427867
20,38400	443473
20,39467	448009
20,40533	441503
20,41600	424804
20,42667	399664
20,43733	368053
20,44800	332516
20,45867	295097
20,46933	257983
20,48000	222545
20,49067	190147
20,50133	161292
20,51200	136380
20,52267	115273
20,53333	97811
20,54400	83633
20,55467	72254
20,56533	63272
20,57600	56238
20,58667	50820
20,59733	46697
20,60800	43610
20,61867	41343
20,62933	39710
20,64000	38558
20,65067	37779
20,66133	37241
20,67200	36877
20,68267	36623
20,69333	36434
20,70400	36252
20,71467	36059
20,72533	35855
20,73600	35621
20,74667	35365
20,75733	35084
20,76800	34802
20,77867	34499
20,78933	34201
20,80000	33914
20,81067	33625
20,82133	33334
20,83200	33063
20,84267	32802
20,85333	32566
20,86400	32356
20,87467	32179
20,88533	32031
20,89600	31922
20,90667	31843
20,91733	31781
20,92800	31761
20,93867	31763
20,94933	31797
20,96000	31858
20,97067	31970
20,98133	32105
20,99200	32268
21,00267	32480
21,01333	32738
21,02400	33025
21,03467	33324
21,04533	33650
21,05600	33977
21,06667	34285
21,07733	34571
21,08800	34790
21,09867	34945
21,10933	35010
21,12000	34975
21,13067	34852
21,14133	34628
21,15200	34334
21,16267	33968
21,17333	33580
21,18400	33194
21,19467	32849
21,20533	32591
21,21600	32448
21,22667	32473
21,23733	32684
21,24800	33095
21,25867	33734
21,26933	34598
21,28000	35683
21,29067	36962
21,30133	38414
21,31200	39974
21,32267	41578
21,33333	43172
21,34400	44722
21,35467	46142
21,36533	47432
21,37600	48552
21,38667	49545
21,39733	50460
21,40800	51423
21,41867	52577
21,42933	54172
21,44000	56452
21,45067	59731
21,46133	64392
21,47200	70730
21,48267	79114
21,49333	89727
21,50400	102729
21,51467	117991
21,52533	135317
21,53600	154162
21,54667	173875
21,55733	193427
21,56800	211947
21,57867	228305
21,58933	241568
21,60000	250897
21,61067	255750
21,62133	255878
21,63200	251400
21,64267	242602
21,65333	230204
21,66400	214896
21,67467	197679
21,68533	179346
21,69600	160842
21,70667	142796
21,71733	125822
21,72800	110243
21,73867	96398
21,74933	84304
21,76000	74008
21,77067	65350
21,78133	58192
21,79200	52343
21,80267	47624
21,81333	43831
21,82400	40821
21,83467	38453
21,84533	36602
21,85600	35155
21,86667	34036
21,87733	33185
21,88800	32543
21,89867	32124
21,90933	31782
21,92000	31534
21,93067	31379
21,94133	31297
21,95200	31284
21,96267	31320
21,97333	31394
21,98400	31513
21,99467	31667
22,00533	31872
22,01600	32120
22,02667	32412
22,03733	32753
22,04800	33125
22,05867	33536
22,06933	33962
22,08000	34359
22,09067	34724
22,10133	35019
22,11200	35246
22,12267	35361
22,13333	35360
22,14400	35251
22,15467	35043
22,16533	34743
22,17600	34381
22,18667	33992
22,19733	33596
22,20800	33220
22,21867	32900
22,22933	32638
22,24000	32444
22,25067	32319
22,26133	32264
22,27200	32269
22,28267	32326
22,29333	32411
22,30400	32531
22,31467	32651
22,32533	32753
22,33600	32864
22,34667	32949
22,35733	33032
22,36800	33097
22,37867	33155
22,38933	33211
22,40000	33279
22,41067	33337
22,42133	33399
22,43200	33437
22,44267	33437
22,45333	33396
22,46400	33299
22,47467	33117
22,48533	32878
22,49600	32582
22,50667	32233
22,51733	31852
22,52800	31456
22,53867	31096
22,54933	30803
22,56000	30644
22,57067	30659
22,58133	30961
22,59200	31648
22,60267	32917
22,61333	34986
22,62400	38158
22,63467	42829
22,64533	49372
22,65600	58246
22,66667	69809
22,67733	84292
22,68800	101767
22,69867	121897
22,70933	144130
22,72000	167397
22,73067	190602
22,74133	212163
22,75200	230731
22,76267	244949
22,77333	253895
22,78400	257057
22,79467	254388
22,80533	246378
22,81600	233806
22,82667	217825
22,83733	199576
22,84800	180285
22,85867	161003
22,86933	142504
22,88000	125443
22,89067	110144
22,90133	96826
22,91200	85371
22,92267	75715
22,93333	67639
22,94400	60963
22,95467	55419
22,96533	50858
22,97600	47095
22,98667	44004
22,99733	41459
23,00800	39375
23,01867	37675
23,02933	36298
23,04000	35203
23,05067	34333
23,06133	33663
23,07200	33161
23,08267	32789
23,09333	32531
23,10400	32348
23,11467	32247
23,12533	32201
23,13600	32208
23,14667	32251
23,15733	32350
23,16800	32496
23,17867	32681
23,18933	32905
23,20000	33162
23,21067	33423
23,22133	33689
23,23200	33936
23,24267	34156
23,25333	34323
23,26400	34428
23,27467	34479
23,28533	34487
23,29600	34447
23,30667	34377
23,31733	34287
23,32800	34205
23,33867	34117
23,34933	34050
23,36000	33974
23,37067	33921
23,38133	33862
23,39200	33798
23,40267	33696
23,41333	33570
23,42400	33431
23,43467	33236
23,44533	33024
23,45600	32788
23,46667	32554
23,47733	32333
23,48800	32155
23,49867	32020
23,50933	31951
23,52000	31987
23,53067	32110
23,54133	32321
23,55200	32614
23,56267	32976
23,57333	33377
23,58400	33792
23,59467	34188
23,60533	34532
23,61600	34789
23,62667	34922
23,63733	34920
23,64800	34780
23,65867	34496
23,66933	34095
23,68000	33606
23,69067	33054
23,70133	32463
23,71200	31864
23,72267	31300
23,73333	30774
23,74400	30297
23,75467	29886
23,76533	29515
23,77600	29217
23,78667	28936
23,79733	28701
23,80800	28475
23,81867	28278
23,82933	28105
23,84000	27953
23,85067	27819
23,86133	27714
23,87200	27621
23,88267	27555
23,89333	27534
23,90400	27554
23,91467	27662
23,92533	27874
23,93600	28224
23,94667	28750
23,95733	29514
23,96800	30558
23,97867	31931
23,98933	33669
24,00000	35827
24,01067	38393
24,02133	41395
24,03200	44781
24,04267	48519
24,05333	52511
24,06400	56687
24,07467	60934
24,08533	65110
24,09600	69083
24,10667	72722
24,11733	75890
24,12800	78451
24,13867	80293
24,14933	81322
24,16000	81491
24,17067	80796
24,18133	79244
24,19200	76917
24,20267	73909
24,21333	70388
24,22400	66490
24,23467	62409
24,24533	58274
24,25600	54251
24,26667	50461
24,27733	46998
24,28800	43925
24,29867	41243
24,30933	38976
24,32000	37097
24,33067	35565
24,34133	34329
24,35200	33347
24,36267	32553
24,37333	31922
24,38400	31392
24,39467	30945
24,40533	30563
24,41600	30210
24,42667	29892
24,43733	29601
24,44800	29336
24,45867	29092
24,46933	28877
24,48000	28687
24,49067	28530
24,50133	28403
24,51200	28322
24,52267	28300
24,53333	28323
24,54400	28413
24,55467	28570
24,56533	28812
24,57600	29119
24,58667	29497
24,59733	29933
24,60800	30409
24,61867	30899
24,62933	31366
24,64000	31785
24,65067	32129
24,66133	32365
24,67200	32482
24,68267	32448
24,69333	32276
24,70400	31967
24,71467	31548
24,72533	31036
24,73600	30460
24,74667	29863
24,75733	29253
24,76800	28666
24,77867	28120
24,78933	27643
24,80000	27243
24,81067	26923
24,82133	26694
24,83200	26548
24,84267	26508
24,85333	26548
24,86400	26674
24,87467	26872
24,88533	27154
24,89600	27484
24,90667	27864
24,91733	28255
24,92800	28649
24,93867	29030
24,94933	29380
24,96000	29666
24,97067	29893
24,98133	30070
24,99200	30208
25,00267	30330
25,01333	30444
25,02400	30589
25,03467	30776
25,04533	31036
25,05600	31358
25,06667	31742
25,07733	32149
25,08800	32565
25,09867	32937
25,10933	33241
25,12000	33450
25,13067	33527
25,14133	33446
25,15200	33240
25,16267	32901
25,17333	32451
25,18400	31910
25,19467	31309
25,20533	30676
25,21600	30044
25,22667	29421
25,23733	28827
25,24800	28282
25,25867	27793
25,26933	27342
25,28000	26962
25,29067	26620
25,30133	26326
25,31200	26079
25,32267	25875
25,33333	25697
25,34400	25567
25,35467	25451
25,36533	25367
25,37600	25324
25,38667	25311
25,39733	25338
25,40800	25401
25,41867	25511
25,42933	25660
25,44000	25859
25,45067	26103
25,46133	26395
25,47200	26702
25,48267	27053
25,49333	27422
25,50400	27791
25,51467	28161
25,52533	28517
25,53600	28847
25,54667	29132
25,55733	29383
25,56800	29552
25,57867	29661
25,58933	29698
25,60000	29676
25,61067	29588
25,62133	29457
25,63200	29313
25,64267	29177
25,65333	29057
25,66400	28997
25,67467	29007
25,68533	29093
25,69600	29275
25,70667	29549
25,71733	29879
25,72800	30259
25,73867	30661
25,74933	31048
25,76000	31393
25,77067	31675
25,78133	31858
25,79200	31960
25,80267	31996
25,81333	31976
25,82400	31921
25,83467	31857
25,84533	31802
25,85600	31772
25,86667	31781
25,87733	31811
25,88800	31869
25,89867	31901
25,90933	31891
25,92000	31841
25,93067	31705
25,94133	31497
25,95200	31209
25,96267	30844
25,97333	30432
25,98400	29995
25,99467	29537
26,00533	29090
26,01600	28655
26,02667	28257
26,03733	27902
26,04800	27577
26,05867	27283
26,06933	27023
26,08000	26791
26,09067	26576
26,10133	26377
26,11200	26190
26,12267	26032
26,13333	25892
26,14400	25763
26,15467	25661
26,16533	25565
26,17600	25489
26,18667	25418
26,19733	25357
26,20800	25291
26,21867	25220
26,22933	25165
26,24000	25110
26,25067	25048
26,26133	24992
26,27200	24944
26,28267	24907
26,29333	24871
26,30400	24840
26,31467	24819
26,32533	24803
26,33600	24793
26,34667	24791
26,35733	24776
26,36800	24756
26,37867	24728
26,38933	24693
26,40000	24652
26,41067	24595
26,42133	24544
26,43200	24497
26,44267	24434
26,45333	24384
26,46400	24342
26,47467	24303
26,48533	24276
26,49600	24256
26,50667	24240
26,51733	24250
26,52800	24255
26,53867	24265
26,54933	24280
26,56000	24297
26,57067	24303
26,58133	24334
26,59200	24358
26,60267	24381
26,61333	24408
26,62400	24435
26,63467	24465
26,64533	24501
26,65600	24539
26,66667	24577
26,67733	24602
26,68800	24631
26,69867	24653
26,70933	24657
26,72000	24659
26,73067	24653
26,74133	24650
26,75200	24656
26,76267	24668
26,77333	24699
26,78400	24758
26,79467	24857
26,80533	24987
26,81600	25183
26,82667	25440
26,83733	25781
26,84800	26203
26,85867	26705
26,86933	27288
26,88000	27927
26,89067	28600
26,90133	29279
26,91200	29936
26,92267	30532
26,93333	31049
26,94400	31441
26,95467	31721
26,96533	31864
26,97600	31863
26,98667	31739
26,99733	31509
27,00800	31173
27,01867	30767
27,02933	30322
27,04000	29837
27,05067	29329
27,06133	28832
27,07200	28339
27,08267	27869
27,09333	27429
27,10400	27016
27,11467	26636
27,12533	26294
27,13600	25967
27,14667	25668
27,15733	25402
27,16800	25170
27,17867	24959
27,18933	24781
27,20000	24624
27,21067	24483
27,22133	24360
27,23200	24262
27,24267	24192
27,25333	24126
27,26400	24070
27,27467	24025
27,28533	23995
27,29600	23970
27,30667	23961
27,31733	23962
27,32800	23978
27,33867	24016
27,34933	24080
27,36000	24164
27,37067	24268
27,38133	24374
27,39200	24485
27,40267	24593
27,41333	24675
27,42400	24731
27,43467	24746
27,44533	24716
27,45600	24659
27,46667	24566
27,47733	24453
27,48800	24341
27,49867	24238
27,50933	24145
27,52000	24082
27,53067	24055
27,54133	24065
27,55200	24116
27,56267	24203
27,57333	24319
27,58400	24441
27,59467	24561
27,60533	24673
27,61600	24754
27,62667	24804
27,63733	24824
27,64800	24799
27,65867	24734
27,66933	24645
27,68000	24524
27,69067	24376
27,70133	24218
27,71200	24050
27,72267	23871
27,73333	23697
27,74400	23540
27,75467	23392
27,76533	23259
27,77600	23146
27,78667	23051
27,79733	22985
27,80800	22936
27,81867	22918
27,82933	22920
27,84000	22930
27,85067	22956
27,86133	22998
27,87200	23024
27,88267	23044
27,89333	23064
27,90400	23066
27,91467	23048
27,92533	23008
27,93600	22954
27,94667	22887
27,95733	22809
27,96800	22718
27,97867	22633
27,98933	22545
28,00000	22464
28,01067	22392
28,02133	22332
28,03200	22290
28,04267	22253
28,05333	22243
28,06400	22239
28,07467	22258
28,08533	22259
28,09600	22273
28,10667	22283
28,11733	22293
28,12800	22298
28,13867	22296
28,14933	22291
28,16000	22283
28,17067	22260
28,18133	22258
28,19200	22244
28,20267	22233
28,21333	22232
28,22400	22239
28,23467	22246
28,24533	22264
28,25600	22289
28,26667	22324
28,27733	22359
28,28800	22397
28,29867	22423
28,30933	22451
28,32000	22472
28,33067	22479
28,34133	22476
28,35200	22480
28,36267	22459
28,37333	22438
28,38400	22415
28,39467	22394
28,40533	22374
28,41600	22361
28,42667	22332
28,43733	22313
28,44800	22304
28,45867	22286
28,46933	22268
28,48000	22241
28,49067	22213
28,50133	22181
28,51200	22161
28,52267	22149
28,53333	22139
28,54400	22150
28,55467	22163
28,56533	22189
28,57600	22222
28,58667	22282
28,59733	22349
28,60800	22411
28,61867	22461
28,62933	22506
28,64000	22548
28,65067	22562
28,66133	22574
28,67200	22571
28,68267	22559
28,69333	22539
28,70400	22517
28,71467	22489
28,72533	22466
28,73600	22437
28,74667	22418
28,75733	22399
28,76800	22383
28,77867	22371
28,78933	22350
28,80000	22329
28,81067	22299
28,82133	22261
28,83200	22218
28,84267	22179
28,85333	22138
28,86400	22100
28,87467	22061
28,88533	22019
28,89600	21983
28,90667	21948
28,91733	21913
28,92800	21873
28,93867	21840
28,94933	21793
28,96000	21759
28,97067	21703
28,98133	21655
28,99200	21600
29,00267	21548
29,01333	21494
29,02400	21434
29,03467	21376
29,04533	21313
29,05600	21250
29,06667	21188
29,07733	21126
29,08800	21075
29,09867	21041
29,10933	21018
29,12000	21007
29,13067	21030
29,14133	21081
29,15200	21165
29,16267	21301
29,17333	21475
29,18400	21700
29,19467	21987
29,20533	22332
29,21600	22731
29,22667	23181
29,23733	23674
29,24800	24206
29,25867	24737
29,26933	25264
29,28000	25768
29,29067	26213
29,30133	26592
29,31200	26889
29,32267	27080
29,33333	27163
29,34400	27142
29,35467	27025
29,36533	26805
29,37600	26506
29,38667	26146
29,39733	25746
29,40800	25327
29,41867	24890
29,42933	24473
29,44000	24068
29,45067	23681
29,46133	23310
29,47200	22983
29,48267	22678
29,49333	22400
29,50400	22146
29,51467	21922
29,52533	21715
29,53600	21536
29,54667	21376
29,55733	21238
29,56800	21124
29,57867	21045
29,58933	20977
29,60000	20922
29,61067	20881
29,62133	20860
29,63200	20835
29,64267	20802
29,65333	20769
29,66400	20733
29,67467	20691
29,68533	20639
29,69600	20583
29,70667	20525
29,71733	20468
29,72800	20414
29,73867	20361
29,74933	20319
29,76000	20289
29,77067	20268
29,78133	20270
29,79200	20269
29,80267	20285
29,81333	20310
29,82400	20350
29,83467	20384
29,84533	20434
29,85600	20490
29,86667	20548
29,87733	20611
29,88800	20668
29,89867	20723
29,90933	20784
29,92000	20837
29,93067	20882
29,94133	20928
29,95200	20965
29,96267	20990
29,97333	21008
29,98400	21025
29,99467	21028
30,00533	21038
30,01600	21054
30,02667	21066
30,03733	21085
30,04800	21108
30,05867	21149
30,06933	21201
30,08000	21258
30,09067	21324
30,10133	21393
30,11200	21468
30,12267	21526
30,13333	21559
30,14400	21570
30,15467	21543
30,16533	21484
30,17600	21397
30,18667	21282
30,19733	21151
30,20800	20999
30,21867	20847
30,22933	20699
30,24000	20556
30,25067	20412
30,26133	20288
30,27200	20200
30,28267	20135
30,29333	20085
30,30400	20060
30,31467	20054
30,32533	20066
30,33600	20102
30,34667	20152
30,35733	20227
30,36800	20321
30,37867	20427
30,38933	20539
30,40000	20656
30,41067	20758
30,42133	20857
30,43200	20955
30,44267	21012
30,45333	21072
30,46400	21099
30,47467	21117
30,48533	21134
30,49600	21128
30,50667	21142
30,51733	21170
30,52800	21207
30,53867	21272
30,54933	21369
30,56000	21504
30,57067	21649
30,58133	21828
30,59200	22006
30,60267	22192
30,61333	22373
30,62400	22515
30,63467	22625
30,64533	22703
30,65600	22728
30,66667	22698
30,67733	22621
30,68800	22491
30,69867	22316
30,70933	22105
30,72000	21871
30,73067	21619
30,74133	21356
30,75200	21092
30,76267	20837
30,77333	20611
30,78400	20396
30,79467	20209
30,80533	20039
30,81600	19910
30,82667	19804
30,83733	19729
30,84800	19667
30,85867	19616
30,86933	19598
30,88000	19586
30,89067	19574
30,90133	19562
30,91200	19572
30,92267	19575
30,93333	19573
30,94400	19577
30,95467	19604
30,96533	19644
30,97600	19686
30,98667	19738
30,99733	19806
31,00800	19894
31,01867	19973
31,02933	20047
31,04000	20113
31,05067	20179
31,06133	20217
31,07200	20242
31,08267	20224
31,09333	20188
31,10400	20130
31,11467	20054
31,12533	19951
31,13600	19840
31,14667	19736
31,15733	19632
31,16800	19520
31,17867	19421
31,18933	19336
31,20000	19256
31,21067	19190
31,22133	19129
31,23200	19080
31,24267	19036
31,25333	18988
31,26400	18948
31,27467	18910
31,28533	18881
31,29600	18857
31,30667	18840
31,31733	18822
31,32800	18811
31,33867	18798
31,34933	18792
31,36000	18785
31,37067	18788
31,38133	18792
31,39200	18792
31,40267	18797
31,41333	18805
31,42400	18811
31,43467	18810
31,44533	18805
31,45600	18802
31,46667	18790
31,47733	18781
31,48800	18753
31,49867	18726
31,50933	18692
31,52000	18656
31,53067	18630
31,54133	18595
31,55200	18560
31,56267	18524
31,57333	18487
31,58400	18444
31,59467	18411
31,60533	18375
31,61600	18338
31,62667	18312
31,63733	18282
31,64800	18265
31,65867	18258
31,66933	18257
31,68000	18264
31,69067	18260
31,70133	18271
31,71200	18282
31,72267	18310
31,73333	18348
31,74400	18377
31,75467	18422
31,76533	18465
31,77600	18505
31,78667	18545
31,79733	18588
31,80800	18615
31,81867	18634
31,82933	18656
31,84000	18668
31,85067	18660
31,86133	18635
31,87200	18610
31,88267	18582
31,89333	18535
31,90400	18476
31,91467	18428
31,92533	18376
31,93600	18326
31,94667	18268
31,95733	18205
31,96800	18157
31,97867	18121
31,98933	18076
32,00000	18040
32,01067	18018
32,02133	17991
32,03200	17972
32,04267	17957
32,05333	17956
32,06400	17937
32,07467	17940
32,08533	17939
32,09600	17925
32,10667	17924
32,11733	17919
32,12800	17916
32,13867	17912
32,14933	17911
32,16000	17903
32,17067	17889
32,18133	17879
32,19200	17871
32,20267	17859
32,21333	17855
32,22400	17853
32,23467	17852
32,24533	17852
32,25600	17859
32,26667	17862
32,27733	17863
32,28800	17878
32,29867	17887
32,30933	17901
32,32000	17915
32,33067	17919
32,34133	17935
32,35200	17954
32,36267	17965
32,37333	17995
32,38400	18010
32,39467	18026
32,40533	18047
32,41600	18071
32,42667	18090
32,43733	18119
32,44800	18138
32,45867	18172
32,46933	18201
32,48000	18238
32,49067	18291
32,50133	18336
32,51200	18386
32,52267	18446
32,53333	18532
32,54400	18626
32,55467	18728
32,56533	18830
32,57600	18944
32,58667	19071
32,59733	19187
32,60800	19308
32,61867	19404
32,62933	19484
32,64000	19546
32,65067	19598
32,66133	19619
32,67200	19619
32,68267	19609
32,69333	19580
32,70400	19544
32,71467	19509
32,72533	19477
32,73600	19458
32,74667	19448
32,75733	19454
32,76800	19468
32,77867	19509
32,78933	19549
32,80000	19610
32,81067	19692
32,82133	19779
32,83200	19875
32,84267	19980
32,85333	20092
32,86400	20222
32,87467	20353
32,88533	20494
32,89600	20644
32,90667	20801
32,91733	20959
32,92800	21131
32,93867	21319
32,94933	21501
32,96000	21681
32,97067	21873
32,98133	22072
32,99200	22256
33,00267	22448
33,01333	22634
33,02400	22819
33,03467	23013
33,04533	23205
33,05600	23408
33,06667	23610
33,07733	23816
33,08800	24024
33,09867	24243
33,10933	24449
33,12000	24683
33,13067	24908
33,14133	25140
33,15200	25374
33,16267	25589
33,17333	25816
33,18400	26024
33,19467	26242
33,20533	26462
33,21600	26688
33,22667	26917
33,23733	27134
33,24800	27364
33,25867	27595
33,26933	27818
33,28000	28045
33,29067	28266
33,30133	28476
33,31200	28681
33,32267	28885
33,33333	29079
33,34400	29275
33,35467	29470
33,36533	29673
33,37600	29876
33,38667	30083
33,39733	30290
33,40800	30492
33,41867	30695
33,42933	30908
33,44000	31115
33,45067	31320
33,46133	31516
33,47200	31700
33,48267	31884
33,49333	32073
33,50400	32265
33,51467	32465
33,52533	32676
33,53600	32884
33,54667	33092
33,55733	33288
33,56800	33469
33,57867	33630
33,58933	33774
33,60000	33885
33,61067	33963
33,62133	34026
33,63200	34087
33,64267	34157
33,65333	34220
33,66400	34286
33,67467	34342
33,68533	34395
33,69600	34422
33,70667	34443
33,71733	34473
33,72800	34498
33,73867	34518
33,74933	34555
33,76000	34599
33,77067	34656
33,78133	34716
33,79200	34785
33,80267	34841
33,81333	34900
33,82400	34928
33,83467	34928
33,84533	34891
33,85600	34864
33,86667	34857
33,87733	34886
33,88800	34964
33,89867	35102
33,90933	35320
33,92000	35629
33,93067	36013
33,94133	36471
33,95200	36930
33,96267	37278
33,97333	37432
33,98400	37365
33,99467	37121
34,00533	36780
34,01600	36411
34,02667	36081
34,03733	35842
34,04800	35716
34,05867	35625
34,06933	35534
34,08000	35400
34,09067	35242
34,10133	35084
34,11200	34983
34,12267	34960
34,13333	35024
34,14400	35077
34,15467	35069
34,16533	34993
34,17600	34928
34,18667	35027
34,19733	35320
34,20800	35733
34,21867	36102
34,22933	36279
34,24000	36236
34,25067	36078
34,26133	35901
34,27200	35754
34,28267	35658
34,29333	35636
34,30400	35735
34,31467	35957
34,32533	36224
34,33600	36382
34,34667	36354
34,35733	36226
34,36800	36099
34,37867	36033
34,38933	36014
34,40000	36055
34,41067	36137
34,42133	36279
34,43200	36460
34,44267	36682
34,45333	36997
34,46400	37397
34,47467	37867
34,48533	38347
34,49600	38737
34,50667	38926
34,51733	38847
34,52800	38502
34,53867	37960
34,54933	37370
34,56000	36847
34,57067	36429
34,58133	36157
34,59200	36000
34,60267	35932
34,61333	35892
34,62400	35871
34,63467	35855
34,64533	35854
34,65600	35869
34,66667	35889
34,67733	35895
34,68800	35883
34,69867	35862
34,70933	35834
34,72000	35814
34,73067	35832
34,74133	35918
34,75200	36056
34,76267	36263
34,77333	36522
34,78400	36807
34,79467	37058
34,80533	37207
34,81600	37228
34,82667	37176
34,83733	37098
34,84800	37054
34,85867	37037
34,86933	37005
34,88000	36978
34,89067	36943
34,90133	36913
34,91200	36892
34,92267	36893
34,93333	36911
34,94400	36935
34,95467	37025
34,96533	37195
34,97600	37692
34,98667	39220
34,99733	43201
35,00800	51470
35,01867	65255
35,02933	84936
35,04000	109129
35,05067	133413
35,06133	149837
35,07200	152443
35,08267	142217
35,09333	125209
35,10400	107670
35,11467	92897
35,12533	81725
35,13600	73654
35,14667	67971
35,15733	64100
35,16800	61535
35,17867	59704
35,18933	58096
35,20000	56475
35,21067	54869
35,22133	53433
35,23200	52222
35,24267	51236
35,25333	50434
35,26400	49755
35,27467	49175
35,28533	48684
35,29600	48261
35,30667	47865
35,31733	47535
35,32800	47262
35,33867	47062
35,34933	46957
35,36000	46863
35,37067	46608
35,38133	46144
35,39200	45568
35,40267	45094
35,41333	44874
35,42400	45009
35,43467	45815
35,44533	47544
35,45600	50046
35,46667	52552
35,47733	54174
35,48800	54585
35,49867	54033
35,50933	52942
35,52000	51573
35,53067	50070
35,54133	48672
35,55200	47796
35,56267	47696
35,57333	48281
35,58400	49005
35,59467	49242
35,60533	48787
35,61600	47885
35,62667	46890
35,63733	46014
35,64800	45310
35,65867	44747
35,66933	44309
35,68000	44003
35,69067	43773
35,70133	43607
35,71200	43515
35,72267	43464
35,73333	43456
35,74400	43459
35,75467	43474
35,76533	43528
35,77600	43640
35,78667	43847
35,79733	44192
35,80800	44697
35,81867	45328
35,82933	45894
35,84000	46225
35,85067	46282
35,86133	46191
35,87200	46028
35,88267	45832
35,89333	45561
35,90400	45220
35,91467	44830
35,92533	44447
35,93600	44116
35,94667	43852
35,95733	43658
35,96800	43527
35,97867	43450
35,98933	43451
36,00000	43511
36,01067	43630
36,02133	43738
36,03200	43805
36,04267	43790
36,05333	43735
36,06400	43641
36,07467	43543
36,08533	43480
36,09600	43455
36,10667	43476
36,11733	43538
36,12800	43611
36,13867	43716
36,14933	43836
36,16000	44003
36,17067	44183
36,18133	44358
36,19200	44511
36,20267	44648
36,21333	44777
36,22400	44904
36,23467	45037
36,24533	45112
36,25600	45096
36,26667	45010
36,27733	44941
36,28800	44997
36,29867	45239
36,30933	45650
36,32000	46075
36,33067	46331
36,34133	46284
36,35200	45997
36,36267	45612
36,37333	45243
36,38400	44962
36,39467	44735
36,40533	44548
36,41600	44391
36,42667	44265
36,43733	44164
36,44800	44085
36,45867	44036
36,46933	44010
36,48000	44009
36,49067	44007
36,50133	44008
36,51200	44016
36,52267	44020
36,53333	44025
36,54400	44029
36,55467	44036
36,56533	44036
36,57600	44040
36,58667	44035
36,59733	44035
36,60800	44041
36,61867	44039
36,62933	44044
36,64000	44066
36,65067	44087
36,66133	44135
36,67200	44208
36,68267	44284
36,69333	44368
36,70400	44444
36,71467	44508
36,72533	44569
36,73600	44625
36,74667	44695
36,75733	44801
36,76800	44894
36,77867	44960
36,78933	44963
36,80000	44905
36,81067	44799
36,82133	44669
36,83200	44535
36,84267	44425
36,85333	44346
36,86400	44280
36,87467	44250
36,88533	44236
36,89600	44224
36,90667	44213
36,91733	44202
36,92800	44196
36,93867	44194
36,94933	44199
36,96000	44223
36,97067	44289
36,98133	44404
36,99200	44598
37,00267	44853
37,01333	45120
37,02400	45364
37,03467	45515
37,04533	45558
37,05600	45465
37,06667	45265
37,07733	45027
37,08800	44773
37,09867	44568
37,10933	44392
37,12000	44262
37,13067	44184
37,14133	44135
37,15200	44115
37,16267	44122
37,17333	44147
37,18400	44223
37,19467	44315
37,20533	44418
37,21600	44510
37,22667	44559
37,23733	44556
37,24800	44492
37,25867	44417
37,26933	44328
37,28000	44239
37,29067	44187
37,30133	44134
37,31200	44101
37,32267	44083
37,33333	44069
37,34400	44049
37,35467	44043
37,36533	44040
37,37600	44040
37,38667	44042
37,39733	44044
37,40800	44051
37,41867	44063
37,42933	44073
37,44000	44080
37,45067	44085
37,46133	44098
37,47200	44101
37,48267	44116
37,49333	44129
37,50400	44152
37,51467	44155
37,52533	44154
37,53600	44145
37,54667	44145
37,55733	44140
37,56800	44140
37,57867	44139
37,58933	44152
37,60000	44167
37,61067	44178
37,62133	44218
37,63200	44261
37,64267	44315
37,65333	44376
37,66400	44424
37,67467	44479
37,68533	44507
37,69600	44526
37,70667	44526
37,71733	44506
37,72800	44472
37,73867	44454
37,74933	44432
37,76000	44413
37,77067	44401
37,78133	44407
37,79200	44410
37,80267	44420
37,81333	44439
37,82400	44467
37,83467	44501
37,84533	44571
37,85600	44674
37,86667	44807
37,87733	44965
37,88800	45134
37,89867	45277
37,90933	45398
37,92000	45464
37,93067	45467
37,94133	45412
37,95200	45298
37,96267	45155
37,97333	44988
37,98400	44826
37,99467	44686
38,00533	44555
38,01600	44460
38,02667	44384
38,03733	44327
38,04800	44284
38,05867	44271
38,06933	44250
38,08000	44245
38,09067	44245
38,10133	44249
38,11200	44251
38,12267	44258
38,13333	44259
38,14400	44264
38,15467	44255
38,16533	44251
38,17600	44250
38,18667	44255
38,19733	44260
38,20800	44261
38,21867	44273
38,22933	44275
38,24000	44282
38,25067	44294
38,26133	44300
38,27200	44302
38,28267	44307
38,29333	44304
38,30400	44297
38,31467	44297
38,32533	44283
38,33600	44279
38,34667	44264
38,35733	44252
38,36800	44249
38,37867	44251
38,38933	44253
38,40000	44250
38,41067	44253
38,42133	44249
38,43200	44253
38,44267	44254
38,45333	44254
38,46400	44264
38,47467	44269
38,48533	44278
38,49600	44278
38,50667	44283
38,51733	44283
38,52800	44296
38,53867	44305
38,54933	44313
38,56000	44322
38,57067	44321
38,58133	44327
38,59200	44316
38,60267	44335
38,61333	44341
38,62400	44351
38,63467	44347
38,64533	44365
38,65600	44377
38,66667	44395
38,67733	44423
38,68800	44427
38,69867	44445
38,70933	44470
38,72000	44483
38,73067	44496
38,74133	44538
38,75200	44602
38,76267	44712
38,77333	44903
38,78400	45223
38,79467	45752
38,80533	46571
38,81600	47802
38,82667	49571
38,83733	51962
38,84800	55017
38,85867	58671
38,86933	62700
38,88000	66744
38,89067	70349
38,90133	73042
38,91200	74419
38,92267	74304
38,93333	72710
38,94400	69926
38,95467	66338
38,96533	62458
38,97600	58675
38,98667	55327
38,99733	52550
39,00800	50397
39,01867	48798
39,02933	47643
39,04000	46854
39,05067	46303
39,06133	45930
39,07200	45644
39,08267	45441
39,09333	45284
39,10400	45132
39,11467	45008
39,12533	44885
39,13600	44771
39,14667	44651
39,15733	44530
39,16800	44405
39,17867	44286
39,18933	44159
39,20000	44022
39,21067	43882
39,22133	43730
39,23200	43575
39,24267	43409
39,25333	43239
39,26400	43061
39,27467	42881
39,28533	42689
39,29600	42492
39,30667	42289
39,31733	42076
39,32800	41859
39,33867	41629
39,34933	41415
39,36000	41190
39,37067	40938
39,38133	40710
39,39200	40497
39,40267	40273
39,41333	40030
39,42400	39813
39,43467	39622
39,44533	39427
39,45600	39213
39,46667	39024
39,47733	38834
39,48800	38656
39,49867	38440
39,50933	38224
39,52000	38002
39,53067	37731
39,54133	37432
39,55200	37091
39,56267	36733
39,57333	36376
39,58400	36037
39,59467	35691
39,60533	35339
39,61600	34945
39,62667	34471
39,63733	33901
39,64800	33211
39,65867	32399
39,66933	31474
39,68000	30449
39,69067	29372
39,70133	28224
39,71200	27031
39,72267	25829
39,73333	24629
39,74400	23401
39,75467	22137
39,76533	20876
39,77600	19649
39,78667	18478
39,79733	17351
39,80800	16278
39,81867	15274
39,82933	14322
39,84000	13431
39,85067	12596
39,86133	11816
39,87200	11096
39,88267	10441
39,89333	9821
39,90400	9257
39,91467	8734
39,92533	8255
39,93600	7815
39,94667	7417
39,95733	7034
39,96800	6687
39,97867	6363
39,98933	6065
40,00000	5794
40,01067	5543
40,02133	5297
40,03200	5071
40,04267	4867
40,05333	4669
40,06400	4483
40,07467	4310
40,08533	4146
40,09600	4001
40,10667	3860
40,11733	3723
40,12800	3594
40,13867	3472
40,14933	3349
40,16000	3239
40,17067	3130
40,18133	3029
40,19200	2925
40,20267	2830
40,21333	2748
40,22400	2653
40,23467	2565
40,24533	2484
40,25600	2407
40,26667	2332
40,27733	2265
40,28800	2200
40,29867	2128
40,30933	2062
40,32000	2001
40,33067	1937
40,34133	1876
40,35200	1824
40,36267	1768
40,37333	1712
40,38400	1661
40,39467	1609
40,40533	1570
40,41600	1520
40,42667	1474
40,43733	1436
40,44800	1393
40,45867	1355
40,46933	1308
40,48000	1272
40,49067	1237
40,50133	1202
40,51200	1169
40,52267	1134
40,53333	1100
40,54400	1073
40,55467	1046
40,56533	1012
40,57600	973
40,58667	944
40,59733	914
40,60800	889
40,61867	866
40,62933	831
40,64000	798
40,65067	780
40,66133	742
40,67200	727
40,68267	701
40,69333	668
40,70400	645
40,71467	621
40,72533	591
40,73600	563
40,74667	541
40,75733	518
40,76800	494
40,77867	463
40,78933	435
40,80000	416
40,81067	393
40,82133	375
40,83200	359
40,84267	334
40,85333	305
40,86400	285
40,87467	274
40,88533	249
40,89600	229
40,90667	214
40,91733	205
40,92800	182
40,93867	171
40,94933	151
40,96000	136
40,97067	113
40,98133	103
40,99200	94
41,00267	82
41,01333	71
41,02400	53
41,03467	43
41,04533	42
41,05600	29
41,06667	21
41,07733	6
41,08800	-9
41,09867	-18
41,10933	-32
41,12000	-31
41,13067	-46
41,14133	-57
41,15200	-65
41,16267	-71
41,17333	-77
41,18400	-82
41,19467	-93
41,20533	-102
41,21600	-116
41,22667	-118
41,23733	-124
41,24800	-127
41,25867	-137
41,26933	-150
41,28000	-148
41,29067	-148
41,30133	-151
41,31200	-163
41,32267	-167
41,33333	-162
41,34400	-166
41,35467	-179
41,36533	-173
41,37600	-177
41,38667	-180
41,39733	-183
41,40800	-181
41,41867	-182
41,42933	-185
41,44000	-183
41,45067	-181
41,46133	-188
41,47200	-181
41,48267	-185
41,49333	-180
41,50400	-173
41,51467	-167
41,52533	-170
41,53600	-162
41,54667	-166
41,55733	-146
41,56800	-136
41,57867	-137
41,58933	-133
41,60000	-123
41,61067	-117
41,62133	-117
41,63200	-113
41,64267	-95
41,65333	-101
41,66400	-89
41,67467	-89
41,68533	-75
41,69600	-63
41,70667	-64
41,71733	-54
41,72800	-39
41,73867	-42
41,74933	-37
41,76000	-23
41,77067	-22
41,78133	-15
41,79200	-6
41,80267	-3
41,81333	-1
41,82400	21
41,83467	19
41,84533	25
41,85600	23
41,86667	38
41,87733	42
41,88800	54
41,89867	60
41,90933	65
41,92000	69
41,93067	74
41,94133	80
41,95200	96
41,96267	107
41,97333	106
41,98400	101
41,99467	109
42,00533	117
42,01600	111
42,02667	120
42,03733	124
42,04800	128
42,05867	137
42,06933	135
42,08000	135
42,09067	143
42,10133	147
42,11200	157
42,12267	157
42,13333	161
42,14400	162
42,15467	164
42,16533	171
42,17600	171
42,18667	178
42,19733	183
42,20800	177
42,21867	178
42,22933	178
42,24000	182
42,25067	186
42,26133	189
42,27200	190
42,28267	200
42,29333	204
42,30400	198
42,31467	200
42,32533	200
42,33600	204
42,34667	196
42,35733	207
42,36800	205
42,37867	203
42,38933	205
42,40000	213
42,41067	206
42,42133	209
42,43200	212
42,44267	203
42,45333	209
42,46400	206
42,47467	212
42,48533	211
42,49600	207
42,50667	211
42,51733	211
42,52800	215
42,53867	211
42,54933	215
42,56000	214
42,57067	213
42,58133	217
42,59200	215
42,60267	208
42,61333	210
42,62400	211
42,63467	215
42,64533	212
42,65600	212
42,66667	218
42,67733	221
42,68800	215
42,69867	211
42,70933	219
42,72000	221
42,73067	213
42,74133	215
42,75200	218
42,76267	215
42,77333	217
42,78400	213
42,79467	208
42,80533	205
42,81600	208
42,82667	212
42,83733	215
42,84800	206
42,85867	210
42,86933	211
42,88000	214
42,89067	214
42,90133	210
42,91200	210
42,92267	211
42,93333	208
42,94400	210
42,95467	209
42,96533	208
42,97600	208
42,98667	207
42,99733	214
43,00800	209
43,01867	206
43,02933	215
43,04000	211
43,05067	202
43,06133	205
43,07200	210
43,08267	216
43,09333	220
43,10400	221
43,11467	214
43,12533	214
43,13600	209
43,14667	212
43,15733	213
43,16800	213
43,17867	208
43,18933	209
43,20000	209
43,21067	208
43,22133	204
43,23200	201
43,24267	206
43,25333	210
43,26400	210
43,27467	209
43,28533	212
43,29600	204
43,30667	210
43,31733	210
43,32800	214
43,33867	202
43,34933	207
43,36000	206
43,37067	201
43,38133	208
43,39200	203
43,40267	204
43,41333	202
43,42400	201
43,43467	200
43,44533	204
43,45600	205
43,46667	199
43,47733	201
43,48800	199
43,49867	210
43,50933	209
43,52000	206
43,53067	205
43,54133	214
43,55200	210
43,56267	209
43,57333	208
43,58400	211
43,59467	201
43,60533	203
43,61600	204
43,62667	207
43,63733	211
43,64800	211
43,65867	203
43,66933	209
43,68000	203
43,69067	207
43,70133	206
43,71200	209
43,72267	202
43,73333	195
43,74400	194
43,75467	193
43,76533	194
43,77600	197
43,78667	204
43,79733	208
43,80800	205
43,81867	203
43,82933	199
43,84000	192
43,85067	196
43,86133	197
43,87200	192
43,88267	194
43,89333	192
43,90400	195
43,91467	196
43,92533	195
43,93600	200
43,94667	201
43,95733	202
43,96800	207
43,97867	204
43,98933	193
44,00000	195
44,01067	204
44,02133	198
44,03200	190
44,04267	193
44,05333	195
44,06400	194
44,07467	195
44,08533	190
44,09600	193
44,10667	189
44,11733	196
44,12800	195
44,13867	194
44,14933	191
44,16000	197
44,17067	191
44,18133	184
44,19200	180
44,20267	180
44,21333	180
44,22400	180
44,23467	191
44,24533	187
44,25600	193
44,26667	187
44,27733	188
44,28800	187
44,29867	186
44,30933	180
44,32000	184
44,33067	193
44,34133	194
44,35200	187
44,36267	182
44,37333	182
44,38400	186
44,39467	187
44,40533	189
44,41600	189
44,42667	186
44,43733	188
44,44800	186
44,45867	190
44,46933	190
44,48000	180
44,49067	180
44,50133	180
44,51200	177
44,52267	173
44,53333	167
44,54400	170
44,55467	168
44,56533	170
44,57600	173
44,58667	175
44,59733	169
44,60800	172
44,61867	176
44,62933	169
44,64000	169
44,65067	168
44,66133	169
44,67200	169
44,68267	171
44,69333	175
44,70400	169
44,71467	172
44,72533	166
44,73600	165
44,74667	165
44,75733	165
44,76800	168
44,77867	167
44,78933	168
44,80000	163
44,81067	162
44,82133	165
44,83200	171
44,84267	167
44,85333	168
44,86400	163
44,87467	166
44,88533	169
44,89600	159
44,90667	161
44,91733	164
44,92800	164
44,93867	164
44,94933	162
44,96000	164
44,97067	162
44,98133	155
44,99200	148
45,00267	155
45,01333	149
45,02400	150
45,03467	154
45,04533	153
45,05600	154
45,06667	153
45,07733	159
45,08800	152
45,09867	151
45,10933	154
45,12000	151
45,13067	147
45,14133	154
45,15200	150
45,16267	148
45,17333	157
45,18400	153
45,19467	147
45,20533	143
45,21600	142
45,22667	140
45,23733	140
45,24800	138
45,25867	147
45,26933	153
45,28000	145
45,29067	149
45,30133	147
45,31200	151
45,32267	150
45,33333	152
45,34400	151
45,35467	134
45,36533	141
45,37600	147
45,38667	146
45,39733	144
45,40800	142
45,41867	156
45,42933	151
45,44000	148
45,45067	150
45,46133	152
45,47200	148
45,48267	153
45,49333	144
45,50400	136
45,51467	145
45,52533	142
45,53600	141
45,54667	143
45,55733	147
45,56800	148
45,57867	145
45,58933	139
45,60000	134
45,61067	135
45,62133	136
45,63200	133
45,64267	131
45,65333	132
45,66400	135
45,67467	138
45,68533	139
45,69600	139
45,70667	137
45,71733	138
45,72800	144
45,73867	140
45,74933	134
45,76000	141
45,77067	140
45,78133	133
45,79200	140
45,80267	132
45,81333	134
45,82400	137
45,83467	140
45,84533	134
45,85600	135
45,86667	136
45,87733	138
45,88800	140
45,89867	143
45,90933	141
45,92000	137
45,93067	132
45,94133	122
45,95200	125
45,96267	129
45,97333	125
45,98400	132
45,99467	129
46,00533	125
46,01600	124
46,02667	122
46,03733	119
46,04800	128
46,05867	124
46,06933	132
46,08000	127
46,09067	130
46,10133	131
46,11200	122
46,12267	120
46,13333	121
46,14400	123
46,15467	130
46,16533	126
46,17600	126
46,18667	122
46,19733	122
46,20800	118
46,21867	123
46,22933	120
46,24000	121
46,25067	121
46,26133	124
46,27200	124
46,28267	131
46,29333	126
46,30400	124
46,31467	119
46,32533	124
46,33600	124
46,34667	115
46,35733	122
46,36800	124
46,37867	126
46,38933	125
46,40000	128
46,41067	130
46,42133	130
46,43200	130
46,44267	126
46,45333	127
46,46400	136
46,47467	130
46,48533	125
46,49600	127
46,50667	133
46,51733	136
46,52800	125
46,53867	123
46,54933	129
46,56000	121
46,57067	122
46,58133	119
46,59200	130
46,60267	123
46,61333	124
46,62400	129
46,63467	129
46,64533	133
46,65600	136
46,66667	131
46,67733	129
46,68800	131
46,69867	121
46,70933	122
46,72000	122
46,73067	120
46,74133	121
46,75200	121
46,76267	124
46,77333	127
46,78400	124
46,79467	123
46,80533	120
46,81600	124
46,82667	117
46,83733	120
46,84800	122
46,85867	126
46,86933	129
46,88000	122
46,89067	121
46,90133	126
46,91200	126
46,92267	121
46,93333	132
46,94400	132
46,95467	128
46,96533	128
46,97600	119
46,98667	122
46,99733	115
47,00800	110
47,01867	112
47,02933	120
47,04000	121
47,05067	124
47,06133	119
47,07200	111
47,08267	116
47,09333	113
47,10400	116
47,11467	119
47,12533	116
47,13600	112
47,14667	116
47,15733	116
47,16800	111
47,17867	107
47,18933	112
47,20000	116
47,21067	111
47,22133	112
47,23200	112
47,24267	117
47,25333	115
47,26400	112
47,27467	110
47,28533	111
47,29600	111
47,30667	103
47,31733	105
47,32800	109
47,33867	114
47,34933	111
47,36000	117
47,37067	111
47,38133	113
47,39200	112
47,40267	109
47,41333	111
47,42400	108
47,43467	109
47,44533	111
47,45600	107
47,46667	110
47,47733	109
47,48800	111
47,49867	109
47,50933	109
47,52000	107
47,53067	99
47,54133	98
47,55200	98
47,56267	93
47,57333	97
47,58400	99
47,59467	107
47,60533	104
47,61600	105
47,62667	103
47,63733	104
47,64800	103
47,65867	96
47,66933	96
47,68000	101
47,69067	104
47,70133	109
47,71200	101
47,72267	109
47,73333	104
47,74400	111
47,75467	105
47,76533	103
47,77600	96
47,78667	91
47,79733	92
47,80800	96
47,81867	95
47,82933	96
47,84000	97
47,85067	92
47,86133	89
47,87200	89
47,88267	96
47,89333	95
47,90400	96
47,91467	91
47,92533	95
47,93600	91
47,94667	90
47,95733	86
47,96800	93
47,97867	92
47,98933	90
48,00000	102
48,01067	93
48,02133	87
48,03200	83
48,04267	85
48,05333	93
48,06400	96
48,07467	93
48,08533	85
48,09600	81
48,10667	86
48,11733	84
48,12800	79
48,13867	81
48,14933	85
48,16000	83
48,17067	80
48,18133	83
48,19200	83
48,20267	79
48,21333	82
48,22400	82
48,23467	75
48,24533	78
48,25600	82
48,26667	76
48,27733	72
48,28800	83
48,29867	84
48,30933	85
48,32000	83
48,33067	84
48,34133	89
48,35200	91
48,36267	84
48,37333	85
48,38400	83
48,39467	82
48,40533	77
48,41600	78
48,42667	79
48,43733	78
48,44800	73
48,45867	81
48,46933	77
48,48000	76
48,49067	80
48,50133	79
48,51200	76
48,52267	73
48,53333	78
48,54400	77
48,55467	70
48,56533	80
48,57600	75
48,58667	76
48,59733	70
48,60800	65
48,61867	76
48,62933	75
48,64000	83
48,65067	77
48,66133	79
48,67200	79
48,68267	74
48,69333	80
48,70400	80
48,71467	81
48,72533	78
48,73600	76
48,74667	77
48,75733	68
48,76800	67
48,77867	76
48,78933	80
48,80000	68
48,81067	73
48,82133	67
48,83200	72
48,84267	70
48,85333	75
48,86400	82
48,87467	74
48,88533	72
48,89600	75
48,90667	76
48,91733	71
48,92800	63
48,93867	67
48,94933	72
48,96000	69
48,97067	63
48,98133	75
48,99200	66
49,00267	69
49,01333	69
49,02400	65
49,03467	74
49,04533	66
49,05600	62
49,06667	58
49,07733	59
49,08800	62
49,09867	69
49,10933	58
49,12000	54
49,13067	60
49,14133	65
49,15200	69
49,16267	58
49,17333	59
49,18400	56
49,19467	57
49,20533	66
49,21600	64
49,22667	61
49,23733	68
49,24800	64
49,25867	56
49,26933	54
49,28000	57
49,29067	53
49,30133	60
49,31200	63
49,32267	52
49,33333	53
49,34400	52
49,35467	53
49,36533	45
49,37600	45
49,38667	46
49,39733	46
49,40800	47
49,41867	47
49,42933	53
49,44000	56
49,45067	52
49,46133	55
49,47200	54
49,48267	54
49,49333	57
49,50400	56
49,51467	59
49,52533	63
49,53600	65
49,54667	66
49,55733	60
49,56800	54
49,57867	50
49,58933	45
49,60000	53
49,61067	50
49,62133	47
49,63200	54
49,64267	55
49,65333	47
49,66400	54
49,67467	56
49,68533	59
49,69600	55
49,70667	48
49,71733	54
49,72800	54
49,73867	49
49,74933	55
49,76000	54
49,77067	54
49,78133	47
49,79200	49
49,80267	50
49,81333	48
49,82400	50
49,83467	51
49,84533	51
49,85600	49
49,86667	52
49,87733	55
49,88800	44
49,89867	51
49,90933	54
49,92000	54
49,93067	51
49,94133	50
49,95200	50
49,96267	50
49,97333	50
49,98400	49
49,99467	57
50,00533	53


