[Header]
Application Name	LabSolutions
Version	5.73
Data File Name	C:\Users\Public\DADOS\Ricardo borges\RMBorges\26.02.25\CHIMARRAO 2.lcd
Output Date	27/02/2025
Output Time	03:54:27

[File Information]
Type	Data File
Generated	27/02/2025 03:03:59
Generated by	System Administrator
Modified	27/02/2025 03:54:26
Modified by	System Administrator

[Sample Information]
Operator Name	System Administrator
Acquired	27/02/2025 03:04:23
Sample Type	0:Unknown
Level	0
Sample Name	CHIMARRAO 2
Sample ID	CHIMARRAO 2
ISTD Amount1	1
ISTD Amount2	1
ISTD Amount3	1
ISTD Amount4	1
ISTD Amount5	1
ISTD Amount6	1
ISTD Amount7	1
ISTD Amount8	1
ISTD Amount9	1
ISTD Amount10	1
ISTD Amount11	1
ISTD Amount12	1
ISTD Amount13	1
ISTD Amount14	1
ISTD Amount15	1
ISTD Amount16	1
ISTD Amount17	1
ISTD Amount18	1
ISTD Amount19	1
ISTD Amount20	1
ISTD Amount21	1
ISTD Amount22	1
ISTD Amount23	1
ISTD Amount24	1
ISTD Amount25	1
ISTD Amount26	1
ISTD Amount27	1
ISTD Amount28	1
ISTD Amount29	1
ISTD Amount30	1
ISTD Amount31	1
ISTD Amount32	1
Sample Amount	1
Dilution Factor	1
Vial#	23
Injection Volume	10

[Original Files]
Data File	C:\Users\Public\DADOS\Ricardo borges\RMBorges\26.02.25\CHIMARRAO 2.lcd
Method File	C:\Users\Public\MÉTODOS\MÉTODOS HPLC AUTOMÁTICO\RICARDO BORGES\RMBorges\sciffee\experimental 1 - pool.lcm
Batch File	C:\Users\Public\DADOS\Ricardo borges\RMBorges\26.02.25\BATCH_RM_MIX POOL_26.02.2025.lcb
Report Format File	C:\LabSolutions\System\Default.lsr

[File Description]


[Configuration]
Instrument Name	HPLC analítico (automático)
Instrument #	1
Line #	1
# of Detectors	1
Detector ID	PDA
Detector Name	PDA
# of Channels	1

[Peak Table(PDA-Ch1)]
# of Peaks	89
Peak#	R.Time	I.Time	F.Time	Area	Height	A/H	Conc.	Mark	ID#	Name	k'	Plate #	Plate Ht.	Tailing	Resolution	Sep.Factor	Area Ratio	Height Ratio	Conc. %	Norm Conc.
1	1,555	1,131	1,707	239604	18979	12,625	0,000	   			0,000	289	519,014	0,000	0,000	0,000	0	0	0,000	0,000
2	1,764	1,707	1,995	263620	26663	9,887	0,000	 V 			0,135	1227	122,281	0,000	0,740	0,000	0	0	0,000	0,000
3	2,084	1,995	2,741	906402	96421	9,400	0,000	SV 			0,341	1610	93,157	0,000	1,563	2,525	0	0	0,000	0,000
4	2,485	2,411	2,549	8576	1566	5,478	0,000	T  			0,598	2779	53,974	0,000	2,020	1,756	0	0	0,000	0,000
5	2,627	2,549	2,731	19362	3596	5,384	0,000	TV 			0,690	3906	38,400	0,000	0,796	1,153	0	0	0,000	0,000
6	2,881	2,741	3,136	159969	13485	11,863	0,000	 V 			0,853	1713	87,566	0,000	1,140	1,237	0	0	0,000	0,000
7	3,362	3,136	3,605	105057	7372	14,251	0,000	 V 			1,163	1764	85,011	0,000	1,606	1,362	0	0	0,000	0,000
8	3,835	3,605	3,989	83911	6547	12,816	0,000	 V 			1,467	1779	84,317	0,000	1,384	1,262	0	0	0,000	0,000
9	4,116	3,989	4,480	103547	6933	14,936	0,000	 V 			1,648	2436	61,577	0,000	0,807	1,123	0	0	0,000	0,000
10	4,501	4,480	4,565	9285	1855	5,004	0,000	 V 			1,896	20	7617,887	0,000	0,175	1,150	0	0	0,000	0,000
11	4,683	4,565	4,736	20652	2164	9,543	0,000	 V 			2,012	35	4270,178	0,000	0,050	1,062	0	0	0,000	0,000
12	4,821	4,736	4,896	21595	2330	9,268	0,000	 V 			2,101	104	1436,939	0,000	0,055	1,044	0	0	0,000	0,000
13	5,017	4,896	5,259	42137	2547	16,546	0,000	 V 			2,227	458	327,765	0,000	0,139	1,060	0	0	0,000	0,000
14	5,504	5,259	5,877	172590	12713	13,576	0,000	 V 			2,541	4320	34,722	0,000	0,766	1,141	0	0	0,000	0,000
15	6,053	5,877	6,112	26627	2668	9,982	0,000	 V 			2,894	1070	140,193	0,000	1,022	1,139	0	0	0,000	0,000
16	6,390	6,112	6,688	11133464	1015866	10,960	0,000	 V 			3,111	7245	20,705	1,208	0,647	1,075	0	0	0,000	0,000
17	6,832	6,688	7,200	1248759	79116	15,784	0,000	 V 			3,395	4838	31,005	0,000	1,275	1,091	0	0	0,000	0,000
18	7,322	7,200	7,584	217802	15412	14,132	0,000	 V 			3,710	3509	42,752	0,000	1,105	1,093	0	0	0,000	0,000
19	7,648	7,584	7,712	25976	3409	7,620	0,000	 V 			3,920	22	6911,180	0,000	0,092	1,056	0	0	0,000	0,000
20	7,786	7,712	7,904	37469	3448	10,866	0,000	 V 			4,009	110	1369,819	0,000	0,029	1,023	0	0	0,000	0,000
21	8,020	7,904	8,085	35750	3563	10,035	0,000	 V 			4,159	1024	146,417	0,000	0,118	1,038	0	0	0,000	0,000
22	8,226	8,085	8,299	68840	6702	10,272	0,000	 V 			4,291	2673	56,124	0,000	0,251	1,032	0	0	0,000	0,000
23	8,416	8,299	8,523	92553	8091	11,439	0,000	 V 			4,414	3025	49,592	0,000	0,305	1,029	0	0	0,000	0,000
24	8,707	8,523	9,227	456064	32351	14,097	0,000	 V 			4,601	12243	12,252	0,000	0,628	1,042	0	0	0,000	0,000
25	9,736	9,227	9,963	308683	15948	19,355	0,000	 V 			5,263	9530	15,740	0,000	2,884	1,144	0	0	0,000	0,000
26	10,180	9,963	10,357	440804	30808	14,308	0,000	 V 			5,549	9108	16,469	0,000	1,075	1,054	0	0	0,000	0,000
27	10,491	10,357	10,720	360226	30011	12,003	0,000	 V 			5,748	13831	10,846	0,000	0,793	1,036	0	0	0,000	0,000
28	11,138	10,720	11,616	10501413	886608	11,844	0,000	 V 			6,165	19425	7,722	1,166	1,914	1,072	0	0	0,000	0,000
29	11,816	11,616	12,032	129616	6617	19,589	0,000	 V 			6,601	4698	31,927	0,000	1,344	1,071	0	0	0,000	0,000
30	12,212	12,032	12,416	249106	20521	12,139	0,000	 V 			6,855	22601	6,637	0,000	0,779	1,039	0	0	0,000	0,000
31	12,591	12,416	12,640	64903	5177	12,536	0,000	 V 			7,100	313	479,354	0,000	0,239	1,036	0	0	0,000	0,000
32	12,788	12,640	12,917	106115	8050	13,182	0,000	 V 			7,226	9329	16,079	0,000	0,116	1,018	0	0	0,000	0,000
33	13,194	12,917	19,435	10370059	427417	24,262	0,000	SV 			7,487	16038	9,353	2,934	0,858	1,036	0	0	0,000	0,000
34	14,258	14,080	14,464	95290	9393	10,145	0,000	T  			8,172	39386	3,808	1,069	3,025	1,091	0	0	0,000	0,000
35	14,721	14,464	14,869	51188	3440	14,881	0,000	T  			8,470	19922	7,529	0,000	1,313	1,036	0	0	0,000	0,000
36	15,039	14,869	15,221	87564	8508	10,292	0,000	TV 			8,674	45990	3,262	0,000	0,910	1,024	0	0	0,000	0,000
37	15,378	15,221	15,456	26808	2433	11,019	0,000	TV 			8,892	11276	13,302	0,000	0,789	1,025	0	0	0,000	0,000
38	15,657	15,456	15,840	105632	8157	12,949	0,000	TV 			9,072	29879	5,020	0,000	0,594	1,020	0	0	0,000	0,000
39	15,967	15,840	16,075	39312	3930	10,003	0,000	TV 			9,271	34192	4,387	0,000	0,876	1,022	0	0	0,000	0,000
40	16,247	16,075	16,427	76436	5275	14,490	0,000	TV 			9,452	22727	6,600	0,000	0,722	1,019	0	0	0,000	0,000
41	16,540	16,427	16,683	31558	2277	13,862	0,000	TV 			9,640	2553	58,754	0,000	0,337	1,020	0	0	0,000	0,000
42	16,845	16,683	16,928	39156	3263	11,998	0,000	TV 			9,836	12735	11,778	0,000	0,319	1,020	0	0	0,000	0,000
43	17,028	16,928	17,227	35812	3420	10,470	0,000	TV 			9,954	20542	7,302	0,000	0,342	1,012	0	0	0,000	0,000
44	17,678	17,227	18,059	215762	11298	19,097	0,000	T  			10,372	26464	5,668	0,000	1,428	1,042	0	0	0,000	0,000
45	18,133	18,059	18,283	17771	1791	9,921	0,000	TV 			10,664	8336	17,994	0,000	0,740	1,028	0	0	0,000	0,000
46	18,494	18,283	18,645	42063	3850	10,924	0,000	TV 			10,897	60431	2,482	0,000	0,661	1,022	0	0	0,000	0,000
47	18,741	18,645	18,848	5004	604	8,280	0,000	TV 			11,056	58234	2,576	0,000	0,807	1,015	0	0	0,000	0,000
48	19,287	18,859	19,424	78185	4677	16,718	0,000	T  			11,407	50195	2,988	0,661	1,667	1,032	0	0	0,000	0,000
49	19,653	19,435	19,883	2254193	207688	10,854	0,000	 V 			11,642	74902	2,003	0,000	1,157	1,021	0	0	0,000	0,000
50	20,007	19,883	20,128	302832	25564	11,846	0,000	 V 			11,870	25624	5,854	0,000	0,901	1,020	0	0	0,000	0,000
51	20,359	20,128	21,248	10430619	946375	11,022	0,000	SV 			12,097	82234	1,824	1,149	0,898	1,019	0	0	0,000	0,000
52	20,747	20,704	20,864	3799	647	5,875	0,000	T  			12,346	288198	0,520	1,858	1,767	1,021	0	0	0,000	0,000
53	21,109	20,907	21,248	56355	6429	8,765	0,000	T  			12,579	115210	1,302	0,881	1,799	1,019	0	0	0,000	0,000
54	21,585	21,248	21,931	4186742	329711	12,698	0,000	 V 			12,885	71733	2,091	0,981	1,665	1,024	0	0	0,000	0,000
55	22,093	21,931	22,219	240617	14538	16,551	0,000	 V 			13,212	125	1204,611	0,000	0,123	1,025	0	0	0,000	0,000
56	22,438	22,219	22,539	262448	14868	17,652	0,000	 V 			13,434	2666	56,270	0,000	0,071	1,017	0	0	0,000	0,000
57	22,764	22,539	23,115	4267961	377508	11,306	0,000	 V 			13,644	94666	1,585	1,263	0,321	1,016	0	0	0,000	0,000
58	23,239	23,115	23,456	252882	16194	15,616	0,000	 V 			13,949	20464	7,330	0,000	1,004	1,022	0	0	0,000	0,000
59	23,639	23,456	23,893	281384	15489	18,167	0,000	 V 			14,207	33063	4,537	0,000	0,683	1,018	0	0	0,000	0,000
60	24,158	23,893	24,491	1142132	81393	14,032	0,000	 V 			14,540	80067	1,873	0,000	1,204	1,023	0	0	0,000	0,000
61	24,661	24,491	24,843	303231	21229	14,284	0,000	 V 			14,864	51755	2,898	0,000	1,298	1,022	0	0	0,000	0,000
62	25,108	24,843	25,429	396321	18298	21,659	0,000	 V 			15,151	25470	5,889	0,000	0,841	1,019	0	0	0,000	0,000
63	25,608	25,429	25,653	108917	10092	10,793	0,000	 V 			15,473	4209	35,638	0,000	0,453	1,021	0	0	0,000	0,000
64	25,771	25,653	26,453	313261	13461	23,272	0,000	 V 			15,578	35804	4,189	0,000	0,153	1,007	0	0	0,000	0,000
65	26,559	26,453	26,667	46300	3698	12,520	0,000	 V 			16,085	621	241,573	0,000	0,328	1,033	0	0	0,000	0,000
66	27,007	26,667	27,307	176296	8216	21,458	0,000	 V 			16,373	54080	2,774	0,000	0,189	1,018	0	0	0,000	0,000
67	27,467	27,307	27,509	38197	3483	10,966	0,000	 V 			16,669	1454	103,178	0,000	0,275	1,018	0	0	0,000	0,000
68	27,602	27,509	27,861	59254	3630	16,325	0,000	 V 			16,756	4018	37,331	0,000	0,059	1,005	0	0	0,000	0,000
69	28,333	27,861	28,523	90786	3179	28,555	0,000	 V 			17,226	6341	23,657	0,000	0,461	1,028	0	0	0,000	0,000
70	28,678	28,523	29,227	73102	2617	27,934	0,000	 V 			17,448	11969	12,532	0,000	0,280	1,013	0	0	0,000	0,000
71	29,499	29,227	29,557	24362	2071	11,764	0,000	 V 			17,976	5624	26,673	0,000	0,626	1,030	0	0	0,000	0,000
72	29,622	29,557	29,792	20937	2088	10,027	0,000	 V 			18,055	7072	21,210	0,000	0,082	1,004	0	0	0,000	0,000
73	29,946	29,792	30,261	19052	1384	13,765	0,000	 V 			18,263	87380	1,717	0,000	0,357	1,012	0	0	0,000	0,000
74	30,700	30,475	30,891	9968	740	13,468	0,000	   			18,749	106797	1,405	0,000	1,932	1,027	0	0	0,000	0,000
75	30,987	30,891	31,093	2223	221	10,081	0,000	 V 			18,933	2726	55,035	0,000	0,209	1,010	0	0	0,000	0,000
76	31,207	31,093	31,392	3151	332	9,498	0,000	 V 			19,075	164663	0,911	0,000	0,164	1,007	0	0	0,000	0,000
77	33,981	32,789	34,037	209973	6230	33,704	0,000	   			20,859	7573	19,808	0,000	2,968	1,094	0	0	0,000	0,000
78	34,506	34,037	34,603	228934	9750	23,479	0,000	 V 			21,197	13578	11,047	0,000	0,382	1,016	0	0	0,000	0,000
79	35,066	34,603	35,413	1106302	119744	9,239	0,000	 V 			21,557	663477	0,226	0,000	0,825	1,017	0	0	0,000	0,000
80	35,486	35,413	35,552	145875	21690	6,726	0,000	 V 			21,827	204218	0,735	0,000	1,727	1,013	0	0	0,000	0,000
81	35,591	35,552	35,733	131938	15792	8,355	0,000	 V 			21,895	47562	3,154	0,000	0,217	1,003	0	0	0,000	0,000
82	35,848	35,733	35,979	142462	11317	12,588	0,000	 V 			22,060	42452	3,533	0,000	0,380	1,008	0	0	0,000	0,000
83	36,034	35,979	36,096	52998	7731	6,855	0,000	 V 			22,180	318	471,780	0,000	0,043	1,005	0	0	0,000	0,000
84	36,333	36,096	36,469	160735	8504	18,902	0,000	 V 			22,372	13370	11,219	0,000	0,064	1,009	0	0	0,000	0,000
85	36,782	36,469	36,939	118111	4250	27,791	0,000	 V 			22,661	16	9534,068	0,000	0,023	1,013	0	0	0,000	0,000
86	37,045	36,939	37,152	33390	3422	9,758	0,000	 V 			22,830	109563	1,369	0,000	0,014	1,007	0	0	0,000	0,000
87	37,230	37,152	37,376	11740	1395	8,416	0,000	 V 			22,949	20436	7,340	0,000	0,249	1,005	0	0	0,000	0,000
88	37,925	37,781	38,080	3197	502	6,375	0,000	   			23,396	637689	0,235	1,003	1,128	1,019	0	0	0,000	0,000
89	38,917	38,677	39,968	1011550	37002	27,337	0,000	   			24,035	357285	0,420	3,091	4,408	1,027	0	0	0,000	0,000

[Compound Results(PDA)]
# of IDs	0

[PDA Multi Chromatogram(Ch1)]
# of Points	      4689
Interval(msec)	640
Start Time(min)	0
End Time(min)	50,0053
Intensity Units	mAU
Intensity Multiplier	1
Type	MultiChrom
Wavelength(nm)	254
Bandwidth(nm)	4
R.Time (min)	Intensity
0,00000	0
0,01067	0
0,02133	0
0,03200	0
0,04267	0
0,05333	0
0,06400	0
0,07467	0
0,08533	0
0,09600	0
0,10667	-6
0,11733	1
0,12800	-2
0,13867	-4
0,14933	-0
0,16000	-4
0,17067	-6
0,18133	-10
0,19200	1
0,20267	3
0,21333	0
0,22400	-0
0,23467	-7
0,24533	-0
0,25600	-6
0,26667	-1
0,27733	5
0,28800	-3
0,29867	-5
0,30933	-2
0,32000	3
0,33067	0
0,34133	-4
0,35200	-3
0,36267	1
0,37333	-0
0,38400	5
0,39467	10
0,40533	11
0,41600	8
0,42667	7
0,43733	3
0,44800	7
0,45867	3
0,46933	10
0,48000	18
0,49067	7
0,50133	5
0,51200	2
0,52267	7
0,53333	9
0,54400	-0
0,55467	0
0,56533	-1
0,57600	1
0,58667	8
0,59733	10
0,60800	3
0,61867	10
0,62933	-1
0,64000	-1
0,65067	-3
0,66133	-5
0,67200	-10
0,68267	-1
0,69333	-5
0,70400	-1
0,71467	-9
0,72533	-2
0,73600	-3
0,74667	-5
0,75733	2
0,76800	-3
0,77867	-6
0,78933	-1
0,80000	-6
0,81067	-1
0,82133	-6
0,83200	-2
0,84267	-3
0,85333	-8
0,86400	-11
0,87467	-16
0,88533	-12
0,89600	-13
0,90667	-11
0,91733	-14
0,92800	-10
0,93867	-12
0,94933	-9
0,96000	-11
0,97067	-10
0,98133	-9
0,99200	-1
1,00267	-0
1,01333	-2
1,02400	-1
1,03467	-3
1,04533	-7
1,05600	-16
1,06667	-14
1,07733	-13
1,08800	-13
1,09867	-16
1,10933	-15
1,12000	-6
1,13067	-10
1,14133	-0
1,15200	10
1,16267	23
1,17333	27
1,18400	33
1,19467	38
1,20533	48
1,21600	60
1,22667	68
1,23733	68
1,24800	76
1,25867	77
1,26933	79
1,28000	83
1,29067	93
1,30133	108
1,31200	134
1,32267	190
1,33333	262
1,34400	343
1,35467	460
1,36533	690
1,37600	1167
1,38667	2020
1,39733	3137
1,40800	4293
1,41867	5267
1,42933	6050
1,44000	6913
1,45067	8240
1,46133	10230
1,47200	12630
1,48267	14785
1,49333	16300
1,50400	17259
1,51467	17887
1,52533	18371
1,53600	18787
1,54667	19092
1,55733	19170
1,56800	18920
1,57867	18300
1,58933	17376
1,60000	16305
1,61067	15233
1,62133	14254
1,63200	13335
1,64267	12370
1,65333	11260
1,66400	9981
1,67467	8667
1,68533	7514
1,69600	6705
1,70667	6417
1,71733	7072
1,72800	9957
1,73867	16255
1,74933	23301
1,76000	26952
1,77067	26575
1,78133	24024
1,79200	21206
1,80267	19064
1,81333	17656
1,82400	16666
1,83467	15833
1,84533	15122
1,85600	14556
1,86667	14213
1,87733	14078
1,88800	14111
1,89867	14243
1,90933	14339
1,92000	14293
1,93067	13994
1,94133	13419
1,95200	12580
1,96267	11565
1,97333	10529
1,98400	9686
1,99467	9530
2,00533	11098
2,01600	16095
2,02667	26229
2,03733	41615
2,04800	60154
2,05867	77795
2,06933	90723
2,08000	96861
2,09067	96177
2,10133	90196
2,11200	80989
2,12267	70629
2,13333	60585
2,14400	51697
2,15467	44184
2,16533	37905
2,17600	32680
2,18667	28386
2,19733	25099
2,20800	22865
2,21867	21569
2,22933	20860
2,24000	20215
2,25067	19270
2,26133	17897
2,27200	16267
2,28267	14662
2,29333	13278
2,30400	12134
2,31467	11150
2,32533	10259
2,33600	9398
2,34667	8585
2,35733	7823
2,36800	7157
2,37867	6606
2,38933	6200
2,40000	5954
2,41067	5866
2,42133	5939
2,43200	6141
2,44267	6405
2,45333	6685
2,46400	6918
2,47467	7065
2,48533	7107
2,49600	7050
2,50667	6902
2,51733	6681
2,52800	6446
2,53867	6243
2,54933	6116
2,56000	6122
2,57067	6325
2,58133	6729
2,59200	7267
2,60267	7837
2,61333	8291
2,62400	8513
2,63467	8435
2,64533	8082
2,65600	7529
2,66667	6878
2,67733	6219
2,68800	5636
2,69867	5154
2,70933	4794
2,72000	4564
2,73067	4459
2,74133	4457
2,75200	4525
2,76267	4640
2,77333	4798
2,78400	5035
2,79467	5433
2,80533	6092
2,81600	7089
2,82667	8423
2,83733	10015
2,84800	11630
2,85867	13021
2,86933	13954
2,88000	14301
2,89067	14060
2,90133	13321
2,91200	12249
2,92267	11031
2,93333	9836
2,94400	8804
2,95467	8039
2,96533	7545
2,97600	7297
2,98667	7216
2,99733	7171
3,00800	7086
3,01867	6872
3,02933	6533
3,04000	6092
3,05067	5613
3,06133	5146
3,07200	4708
3,08267	4356
3,09333	4093
3,10400	3908
3,11467	3794
3,12533	3733
3,13600	3702
3,14667	3715
3,15733	3763
3,16800	3838
3,17867	3936
3,18933	4027
3,20000	4115
3,21067	4162
3,22133	4185
3,23200	4205
3,24267	4236
3,25333	4313
3,26400	4464
3,27467	4716
3,28533	5092
3,29600	5576
3,30667	6148
3,31733	6774
3,32800	7382
3,33867	7905
3,34933	8264
3,36000	8415
3,37067	8336
3,38133	8031
3,39200	7549
3,40267	6962
3,41333	6335
3,42400	5727
3,43467	5172
3,44533	4712
3,45600	4362
3,46667	4130
3,47733	4007
3,48800	3988
3,49867	4012
3,50933	3986
3,52000	3794
3,53067	3466
3,54133	3079
3,55200	2714
3,56267	2421
3,57333	2209
3,58400	2071
3,59467	1985
3,60533	1951
3,61600	1956
3,62667	1985
3,63733	2043
3,64800	2128
3,65867	2242
3,66933	2389
3,68000	2569
3,69067	2788
3,70133	3047
3,71200	3364
3,72267	3732
3,73333	4153
3,74400	4635
3,75467	5129
3,76533	5652
3,77600	6179
3,78667	6672
3,79733	7105
3,80800	7450
3,81867	7687
3,82933	7809
3,84000	7814
3,85067	7699
3,86133	7476
3,87200	7174
3,88267	6800
3,89333	6406
3,90400	5974
3,91467	5557
3,92533	5157
3,93600	4792
3,94667	4479
3,95733	4213
3,96800	4020
3,97867	3908
3,98933	3879
4,00000	3934
4,01067	4084
4,02133	4339
4,03200	4709
4,04267	5180
4,05333	5734
4,06400	6350
4,07467	6965
4,08533	7523
4,09600	7964
4,10667	8243
4,11733	8332
4,12800	8208
4,13867	7928
4,14933	7527
4,16000	7042
4,17067	6537
4,18133	6060
4,19200	5620
4,20267	5240
4,21333	4930
4,22400	4690
4,23467	4497
4,24533	4356
4,25600	4258
4,26667	4183
4,27733	4127
4,28800	4083
4,29867	4047
4,30933	4012
4,32000	3974
4,33067	3924
4,34133	3875
4,35200	3824
4,36267	3764
4,37333	3702
4,38400	3647
4,39467	3593
4,40533	3544
4,41600	3511
4,42667	3474
4,43733	3457
4,44800	3443
4,45867	3428
4,46933	3428
4,48000	3426
4,49067	3437
4,50133	3436
4,51200	3420
4,52267	3413
4,53333	3400
4,54400	3390
4,55467	3371
4,56533	3366
4,57600	3367
4,58667	3384
4,59733	3413
4,60800	3460
4,61867	3523
4,62933	3595
4,64000	3662
4,65067	3721
4,66133	3777
4,67200	3810
4,68267	3830
4,69333	3838
4,70400	3829
4,71467	3831
4,72533	3822
4,73600	3824
4,74667	3840
4,75733	3862
4,76800	3900
4,77867	3945
4,78933	3994
4,80000	4033
4,81067	4052
4,82133	4062
4,83200	4051
4,84267	4040
4,85333	4021
4,86400	3996
4,87467	3973
4,88533	3958
4,89600	3954
4,90667	3962
4,91733	3989
4,92800	4027
4,93867	4076
4,94933	4131
4,96000	4183
4,97067	4237
4,98133	4291
4,99200	4327
5,00267	4359
5,01333	4371
5,02400	4368
5,03467	4363
5,04533	4341
5,05600	4295
5,06667	4234
5,07733	4176
5,08800	4094
5,09867	4012
5,10933	3918
5,12000	3814
5,13067	3705
5,14133	3600
5,15200	3490
5,16267	3391
5,17333	3293
5,18400	3196
5,19467	3113
5,20533	3040
5,21600	2968
5,22667	2913
5,23733	2866
5,24800	2842
5,25867	2839
5,26933	2844
5,28000	2887
5,29067	2956
5,30133	3060
5,31200	3212
5,32267	3411
5,33333	3678
5,34400	4003
5,35467	4410
5,36533	4899
5,37600	5479
5,38667	6164
5,39733	6956
5,40800	7833
5,41867	8798
5,42933	9820
5,44000	10864
5,45067	11878
5,46133	12826
5,47200	13634
5,48267	14253
5,49333	14638
5,50400	14767
5,51467	14642
5,52533	14269
5,53600	13678
5,54667	12906
5,55733	12037
5,56800	11095
5,57867	10156
5,58933	9230
5,60000	8373
5,61067	7598
5,62133	6937
5,63200	6360
5,64267	5866
5,65333	5469
5,66400	5141
5,67467	4878
5,68533	4664
5,69600	4500
5,70667	4364
5,71733	4246
5,72800	4132
5,73867	4031
5,74933	3909
5,76000	3788
5,77067	3682
5,78133	3564
5,79200	3434
5,80267	3324
5,81333	3214
5,82400	3120
5,83467	3031
5,84533	2957
5,85600	2910
5,86667	2882
5,87733	2880
5,88800	2900
5,89867	2941
5,90933	3008
5,92000	3102
5,93067	3228
5,94133	3381
5,95200	3565
5,96267	3764
5,97333	3980
5,98400	4188
5,99467	4399
6,00533	4587
6,01600	4743
6,02667	4867
6,03733	4946
6,04800	4981
6,05867	4980
6,06933	4959
6,08000	4911
6,09067	4860
6,10133	4812
6,11200	4778
6,12267	4784
6,13333	4862
6,14400	5043
6,15467	5414
6,16533	6074
6,17600	7212
6,18667	9117
6,19733	12262
6,20800	17297
6,21867	25301
6,22933	37595
6,24000	55980
6,25067	82643
6,26133	119939
6,27200	170326
6,28267	235160
6,29333	315352
6,30400	409200
6,31467	513880
6,32533	622927
6,33600	729855
6,34667	826872
6,35733	908052
6,36800	968350
6,37867	1005330
6,38933	1018337
6,40000	1008524
6,41067	978560
6,42133	931792
6,43200	871866
6,44267	802667
6,45333	727331
6,46400	649562
6,47467	571810
6,48533	496792
6,49600	425887
6,50667	360812
6,51733	302133
6,52800	250477
6,53867	205582
6,54933	167341
6,56000	135186
6,57067	108654
6,58133	86967
6,59200	69497
6,60267	55550
6,61333	44535
6,62400	35937
6,63467	29284
6,64533	24230
6,65600	20519
6,66667	18006
6,67733	16644
6,68800	16456
6,69867	17553
6,70933	20053
6,72000	24059
6,73067	29516
6,74133	36257
6,75200	43864
6,76267	51890
6,77333	59723
6,78400	66857
6,79467	72836
6,80533	77382
6,81600	80366
6,82667	81788
6,83733	81796
6,84800	80580
6,85867	78346
6,86933	75379
6,88000	71882
6,89067	68086
6,90133	64158
6,91200	60279
6,92267	56571
6,93333	53161
6,94400	50087
6,95467	47391
6,96533	45074
6,97600	43103
6,98667	41418
6,99733	39952
7,00800	38593
7,01867	37272
7,02933	35921
7,04000	34459
7,05067	32872
7,06133	31147
7,07200	29288
7,08267	27336
7,09333	25357
7,10400	23395
7,11467	21514
7,12533	19755
7,13600	18161
7,14667	16777
7,15733	15611
7,16800	14684
7,17867	13990
7,18933	13530
7,20000	13310
7,21067	13312
7,22133	13512
7,23200	13905
7,24267	14441
7,25333	15079
7,26400	15795
7,27467	16508
7,28533	17174
7,29600	17720
7,30667	18122
7,31733	18324
7,32800	18316
7,33867	18066
7,34933	17623
7,36000	16997
7,37067	16234
7,38133	15373
7,39200	14455
7,40267	13519
7,41333	12606
7,42400	11751
7,43467	10957
7,44533	10225
7,45600	9578
7,46667	8992
7,47733	8485
7,48800	8040
7,49867	7652
7,50933	7332
7,52000	7059
7,53067	6820
7,54133	6653
7,55200	6516
7,56267	6433
7,57333	6380
7,58400	6365
7,59467	6378
7,60533	6398
7,61600	6422
7,62667	6444
7,63733	6461
7,64800	6474
7,65867	6477
7,66933	6478
7,68000	6465
7,69067	6455
7,70133	6459
7,71200	6459
7,72267	6468
7,73333	6484
7,74400	6504
7,75467	6531
7,76533	6556
7,77600	6575
7,78667	6579
7,79733	6574
7,80800	6540
7,81867	6496
7,82933	6448
7,84000	6385
7,85067	6312
7,86133	6234
7,87200	6163
7,88267	6111
7,89333	6068
7,90400	6051
7,91467	6063
7,92533	6105
7,93600	6169
7,94667	6259
7,95733	6366
7,96800	6471
7,97867	6582
7,98933	6683
8,00000	6753
8,01067	6789
8,02133	6803
8,03200	6780
8,04267	6721
8,05333	6653
8,06400	6572
8,07467	6507
8,08533	6473
8,09600	6484
8,10667	6576
8,11733	6750
8,12800	7017
8,13867	7353
8,14933	7770
8,16000	8226
8,17067	8681
8,18133	9117
8,19200	9507
8,20267	9801
8,21333	9965
8,22400	10040
8,23467	10002
8,24533	9886
8,25600	9711
8,26667	9502
8,27733	9322
8,28800	9182
8,29867	9109
8,30933	9120
8,32000	9224
8,33067	9419
8,34133	9702
8,35200	10031
8,36267	10391
8,37333	10738
8,38400	11051
8,39467	11297
8,40533	11463
8,41600	11519
8,42667	11461
8,43733	11299
8,44800	11062
8,45867	10756
8,46933	10414
8,48000	10062
8,49067	9729
8,50133	9448
8,51200	9237
8,52267	9120
8,53333	9130
8,54400	9310
8,55467	9689
8,56533	10315
8,57600	11239
8,58667	12509
8,59733	14147
8,60800	16153
8,61867	18503
8,62933	21160
8,64000	23991
8,65067	26863
8,66133	29602
8,67200	32042
8,68267	33989
8,69333	35312
8,70400	35916
8,71467	35763
8,72533	34872
8,73600	33351
8,74667	31330
8,75733	28946
8,76800	26385
8,77867	23790
8,78933	21283
8,80000	18982
8,81067	16922
8,82133	15157
8,83200	13669
8,84267	12459
8,85333	11493
8,86400	10739
8,87467	10163
8,88533	9740
8,89600	9437
8,90667	9227
8,91733	9096
8,92800	9018
8,93867	8979
8,94933	8975
8,96000	8978
8,97067	8987
8,98133	8979
8,99200	8944
9,00267	8880
9,01333	8793
9,02400	8676
9,03467	8523
9,04533	8340
9,05600	8155
9,06667	7957
9,07733	7738
9,08800	7521
9,09867	7308
9,10933	7107
9,12000	6914
9,13067	6727
9,14133	6558
9,15200	6396
9,16267	6249
9,17333	6122
9,18400	6021
9,19467	5947
9,20533	5894
9,21600	5873
9,22667	5870
9,23733	5901
9,24800	5959
9,25867	6033
9,26933	6139
9,28000	6248
9,29067	6363
9,30133	6480
9,31200	6606
9,32267	6720
9,33333	6822
9,34400	6916
9,35467	6998
9,36533	7081
9,37600	7154
9,38667	7224
9,39733	7307
9,40800	7412
9,41867	7538
9,42933	7670
9,44000	7843
9,45067	8044
9,46133	8267
9,47200	8500
9,48267	8729
9,49333	8954
9,50400	9162
9,51467	9344
9,52533	9485
9,53600	9576
9,54667	9648
9,55733	9694
9,56800	9749
9,57867	9841
9,58933	9997
9,60000	10256
9,61067	10640
9,62133	11178
9,63200	11867
9,64267	12710
9,65333	13700
9,66400	14790
9,67467	15930
9,68533	17038
9,69600	18061
9,70667	18913
9,71733	19554
9,72800	19917
9,73867	19999
9,74933	19792
9,76000	19316
9,77067	18631
9,78133	17795
9,79200	16873
9,80267	15914
9,81333	14992
9,82400	14121
9,83467	13338
9,84533	12663
9,85600	12088
9,86667	11589
9,87733	11156
9,88800	10778
9,89867	10451
9,90933	10155
9,92000	9887
9,93067	9653
9,94133	9457
9,95200	9327
9,96267	9260
9,97333	9286
9,98400	9421
9,99467	9697
10,00533	10136
10,01600	10762
10,02667	11569
10,03733	12604
10,04800	13874
10,05867	15378
10,06933	17124
10,08000	19086
10,09067	21224
10,10133	23506
10,11200	25834
10,12267	28119
10,13333	30250
10,14400	32111
10,15467	33588
10,16533	34589
10,17600	35068
10,18667	35009
10,19733	34448
10,20800	33476
10,21867	32175
10,22933	30698
10,24000	29144
10,25067	27633
10,26133	26211
10,27200	24948
10,28267	23827
10,29333	22841
10,30400	21962
10,31467	21191
10,32533	20516
10,33600	19937
10,34667	19509
10,35733	19275
10,36800	19309
10,37867	19684
10,38933	20426
10,40000	21566
10,41067	23077
10,42133	24903
10,43200	26917
10,44267	28985
10,45333	30925
10,46400	32573
10,47467	33776
10,48533	34413
10,49600	34417
10,50667	33768
10,51733	32517
10,52800	30780
10,53867	28642
10,54933	26281
10,56000	23825
10,57067	21425
10,58133	19152
10,59200	17104
10,60267	15311
10,61333	13792
10,62400	12538
10,63467	11535
10,64533	10745
10,65600	10142
10,66667	9686
10,67733	9351
10,68800	9126
10,69867	8986
10,70933	8899
10,72000	8864
10,73067	8865
10,74133	8894
10,75200	8952
10,76267	9017
10,77333	9089
10,78400	9161
10,79467	9243
10,80533	9319
10,81600	9374
10,82667	9414
10,83733	9424
10,84800	9413
10,85867	9392
10,86933	9388
10,88000	9453
10,89067	9666
10,90133	10194
10,91200	11217
10,92267	13135
10,93333	16455
10,94400	21928
10,95467	30488
10,96533	43428
10,97600	62060
10,98667	87956
10,99733	122252
11,00800	166098
11,01867	219646
11,02933	282837
11,04000	354147
11,05067	431716
11,06133	512772
11,07200	593960
11,08267	671896
11,09333	742509
11,10400	802549
11,11467	848662
11,12533	878735
11,13600	891320
11,14667	886168
11,15733	864281
11,16800	827440
11,17867	778495
11,18933	720198
11,20000	656012
11,21067	588709
11,22133	521181
11,23200	455698
11,24267	393900
11,25333	337085
11,26400	285691
11,27467	240295
11,28533	200697
11,29600	166766
11,30667	137910
11,31733	113773
11,32800	93709
11,33867	77239
11,34933	63756
11,36000	52809
11,37067	43952
11,38133	36839
11,39200	31124
11,40267	26550
11,41333	22892
11,42400	19984
11,43467	17672
11,44533	15827
11,45600	14367
11,46667	13204
11,47733	12277
11,48800	11536
11,49867	10932
11,50933	10445
11,52000	10053
11,53067	9740
11,54133	9483
11,55200	9271
11,56267	9116
11,57333	8985
11,58400	8904
11,59467	8845
11,60533	8808
11,61600	8797
11,62667	8814
11,63733	8848
11,64800	8900
11,65867	8975
11,66933	9072
11,68000	9194
11,69067	9354
11,70133	9542
11,71200	9763
11,72267	10003
11,73333	10258
11,74400	10531
11,75467	10806
11,76533	11055
11,77600	11275
11,78667	11450
11,79733	11568
11,80800	11633
11,81867	11649
11,82933	11611
11,84000	11536
11,85067	11444
11,86133	11341
11,87200	11223
11,88267	11101
11,89333	10992
11,90400	10870
11,91467	10748
11,92533	10600
11,93600	10428
11,94667	10229
11,95733	10020
11,96800	9777
11,97867	9532
11,98933	9293
12,00000	9073
12,01067	8892
12,02133	8770
12,03200	8741
12,04267	8816
12,05333	9029
12,06400	9394
12,07467	9954
12,08533	10716
12,09600	11695
12,10667	12901
12,11733	14315
12,12800	15907
12,13867	17621
12,14933	19397
12,16000	21110
12,17067	22685
12,18133	23999
12,19200	24996
12,20267	25591
12,21333	25739
12,22400	25444
12,23467	24737
12,24533	23691
12,25600	22380
12,26667	20874
12,27733	19292
12,28800	17708
12,29867	16187
12,30933	14805
12,32000	13582
12,33067	12540
12,34133	11687
12,35200	11018
12,36267	10509
12,37333	10142
12,38400	9879
12,39467	9720
12,40533	9633
12,41600	9609
12,42667	9619
12,43733	9652
12,44800	9694
12,45867	9753
12,46933	9814
12,48000	9878
12,49067	9948
12,50133	10023
12,51200	10114
12,52267	10209
12,53333	10297
12,54400	10378
12,55467	10462
12,56533	10525
12,57600	10559
12,58667	10575
12,59733	10574
12,60800	10548
12,61867	10515
12,62933	10501
12,64000	10492
12,65067	10518
12,66133	10590
12,67200	10706
12,68267	10876
12,69333	11104
12,70400	11391
12,71467	11720
12,72533	12074
12,73600	12447
12,74667	12800
12,75733	13111
12,76800	13348
12,77867	13499
12,78933	13540
12,80000	13464
12,81067	13277
12,82133	12995
12,83200	12640
12,84267	12238
12,85333	11806
12,86400	11401
12,87467	11034
12,88533	10727
12,89600	10500
12,90667	10352
12,91733	10280
12,92800	10294
12,93867	10378
12,94933	10526
12,96000	10730
12,97067	10959
12,98133	11213
12,99200	11456
13,00267	11699
13,01333	11904
13,02400	12097
13,03467	12346
13,04533	12870
13,05600	14393
13,06667	18682
13,07733	29337
13,08800	51250
13,09867	88666
13,10933	141105
13,12000	203415
13,13067	266783
13,14133	323619
13,15200	368788
13,16267	400897
13,17333	420864
13,18400	430826
13,19467	433099
13,20533	429653
13,21600	422024
13,22667	411413
13,23733	398549
13,24800	384159
13,25867	368610
13,26933	352386
13,28000	335710
13,29067	318962
13,30133	302263
13,31200	285907
13,32267	269941
13,33333	254565
13,34400	239774
13,35467	225673
13,36533	212272
13,37600	199553
13,38667	187558
13,39733	176236
13,40800	165610
13,41867	155615
13,42933	146286
13,44000	137549
13,45067	129404
13,46133	121782
13,47200	114676
13,48267	108033
13,49333	101849
13,50400	96057
13,51467	90652
13,52533	85583
13,53600	80853
13,54667	76429
13,55733	72281
13,56800	68414
13,57867	64783
13,58933	61400
13,60000	58230
13,61067	55271
13,62133	52489
13,63200	49894
13,64267	47458
13,65333	45184
13,66400	43027
13,67467	41007
13,68533	39100
13,69600	37322
13,70667	35615
13,71733	34013
13,72800	32500
13,73867	31075
13,74933	29740
13,76000	28490
13,77067	27336
13,78133	26251
13,79200	25274
13,80267	24377
13,81333	23574
13,82400	22843
13,83467	22185
13,84533	21573
13,85600	21037
13,86667	20535
13,87733	20080
13,88800	19666
13,89867	19282
13,90933	18918
13,92000	18580
13,93067	18258
13,94133	17955
13,95200	17651
13,96267	17363
13,97333	17074
13,98400	16797
13,99467	16519
14,00533	16251
14,01600	16007
14,02667	15779
14,03733	15578
14,04800	15403
14,05867	15273
14,06933	15190
14,08000	15177
14,09067	15229
14,10133	15378
14,11200	15626
14,12267	15987
14,13333	16455
14,14400	17053
14,15467	17767
14,16533	18581
14,17600	19474
14,18667	20409
14,19733	21348
14,20800	22234
14,21867	23036
14,22933	23693
14,24000	24169
14,25067	24453
14,26133	24500
14,27200	24339
14,28267	23978
14,29333	23454
14,30400	22773
14,31467	22018
14,32533	21195
14,33600	20355
14,34667	19541
14,35733	18768
14,36800	18056
14,37867	17414
14,38933	16840
14,40000	16341
14,41067	15933
14,42133	15596
14,43200	15334
14,44267	15150
14,45333	15041
14,46400	15025
14,47467	15059
14,48533	15163
14,49600	15324
14,50667	15540
14,51733	15766
14,52800	16024
14,53867	16275
14,54933	16515
14,56000	16729
14,57067	16937
14,58133	17114
14,59200	17271
14,60267	17416
14,61333	17548
14,62400	17669
14,63467	17790
14,64533	17905
14,65600	18030
14,66667	18146
14,67733	18267
14,68800	18375
14,69867	18465
14,70933	18525
14,72000	18550
14,73067	18533
14,74133	18466
14,75200	18350
14,76267	18190
14,77333	17989
14,78400	17759
14,79467	17510
14,80533	17250
14,81600	16994
14,82667	16751
14,83733	16541
14,84800	16354
14,85867	16224
14,86933	16160
14,88000	16157
14,89067	16239
14,90133	16404
14,91200	16688
14,92267	17067
14,93333	17573
14,94400	18177
14,95467	18907
14,96533	19691
14,97600	20523
14,98667	21352
14,99733	22131
15,00800	22815
15,01867	23314
15,02933	23633
15,04000	23722
15,05067	23568
15,06133	23209
15,07200	22666
15,08267	21990
15,09333	21220
15,10400	20423
15,11467	19636
15,12533	18905
15,13600	18258
15,14667	17726
15,15733	17294
15,16800	16956
15,17867	16728
15,18933	16584
15,20000	16501
15,21067	16459
15,22133	16447
15,23200	16464
15,24267	16487
15,25333	16533
15,26400	16582
15,27467	16655
15,28533	16749
15,29600	16872
15,30667	17016
15,31733	17173
15,32800	17336
15,33867	17478
15,34933	17608
15,36000	17704
15,37067	17753
15,38133	17759
15,39200	17727
15,40267	17666
15,41333	17577
15,42400	17493
15,43467	17421
15,44533	17367
15,45600	17352
15,46667	17393
15,47733	17478
15,48800	17612
15,49867	17806
15,50933	18049
15,52000	18348
15,53067	18693
15,54133	19083
15,55200	19522
15,56267	19987
15,57333	20492
15,58400	21019
15,59467	21563
15,60533	22095
15,61600	22588
15,62667	23013
15,63733	23330
15,64800	23526
15,65867	23575
15,66933	23487
15,68000	23248
15,69067	22870
15,70133	22373
15,71200	21809
15,72267	21203
15,73333	20568
15,74400	19957
15,75467	19367
15,76533	18812
15,77600	18304
15,78667	17858
15,79733	17464
15,80800	17139
15,81867	16904
15,82933	16752
15,84000	16690
15,85067	16727
15,86133	16845
15,87200	17058
15,88267	17346
15,89333	17690
15,90400	18064
15,91467	18431
15,92533	18775
15,93600	19067
15,94667	19287
15,95733	19409
15,96800	19450
15,97867	19393
15,98933	19250
16,00000	19041
16,01067	18795
16,02133	18523
16,03200	18272
16,04267	18048
16,05333	17873
16,06400	17753
16,07467	17693
16,08533	17701
16,09600	17776
16,10667	17917
16,11733	18106
16,12800	18345
16,13867	18635
16,14933	18942
16,16000	19267
16,17067	19577
16,18133	19889
16,19200	20170
16,20267	20410
16,21333	20615
16,22400	20757
16,23467	20852
16,24533	20887
16,25600	20872
16,26667	20816
16,27733	20703
16,28800	20560
16,29867	20364
16,30933	20122
16,32000	19843
16,33067	19527
16,34133	19199
16,35200	18844
16,36267	18491
16,37333	18158
16,38400	17854
16,39467	17595
16,40533	17396
16,41600	17269
16,42667	17200
16,43733	17197
16,44800	17261
16,45867	17355
16,46933	17465
16,48000	17600
16,49067	17717
16,50133	17813
16,51200	17900
16,52267	17945
16,53333	17982
16,54400	17985
16,55467	17967
16,56533	17941
16,57600	17919
16,58667	17892
16,59733	17887
16,60800	17868
16,61867	17854
16,62933	17851
16,64000	17845
16,65067	17826
16,66133	17806
16,67200	17783
16,68267	17761
16,69333	17754
16,70400	17738
16,71467	17747
16,72533	17785
16,73600	17837
16,74667	17932
16,75733	18053
16,76800	18198
16,77867	18371
16,78933	18544
16,80000	18717
16,81067	18854
16,82133	18977
16,83200	19048
16,84267	19072
16,85333	19062
16,86400	18998
16,87467	18895
16,88533	18784
16,89600	18662
16,90667	18555
16,91733	18467
16,92800	18424
16,93867	18421
16,94933	18469
16,96000	18560
16,97067	18689
16,98133	18848
16,99200	19000
17,00267	19130
17,01333	19235
17,02400	19289
17,03467	19282
17,04533	19217
17,05600	19085
17,06667	18901
17,07733	18677
17,08800	18417
17,09867	18131
17,10933	17841
17,12000	17545
17,13067	17257
17,14133	16991
17,15200	16741
17,16267	16529
17,17333	16342
17,18400	16188
17,19467	16075
17,20533	15990
17,21600	15947
17,22667	15934
17,23733	15960
17,24800	16021
17,25867	16092
17,26933	16183
17,28000	16274
17,29067	16367
17,30133	16452
17,31200	16529
17,32267	16592
17,33333	16620
17,34400	16646
17,35467	16661
17,36533	16674
17,37600	16696
17,38667	16752
17,39733	16825
17,40800	16949
17,41867	17113
17,42933	17339
17,44000	17601
17,45067	17918
17,46133	18281
17,47200	18673
17,48267	19087
17,49333	19525
17,50400	19968
17,51467	20408
17,52533	20849
17,53600	21284
17,54667	21726
17,55733	22200
17,56800	22714
17,57867	23264
17,58933	23870
17,60000	24511
17,61067	25207
17,62133	25900
17,63200	26563
17,64267	27147
17,65333	27620
17,66400	27935
17,67467	28079
17,68533	28037
17,69600	27821
17,70667	27438
17,71733	26948
17,72800	26377
17,73867	25759
17,74933	25130
17,76000	24529
17,77067	23966
17,78133	23452
17,79200	23002
17,80267	22619
17,81333	22312
17,82400	22071
17,83467	21897
17,84533	21784
17,85600	21726
17,86667	21704
17,87733	21707
17,88800	21709
17,89867	21703
17,90933	21671
17,92000	21581
17,93067	21443
17,94133	21258
17,95200	21024
17,96267	20754
17,97333	20473
17,98400	20173
17,99467	19895
18,00533	19659
18,01600	19456
18,02667	19306
18,03733	19206
18,04800	19153
18,05867	19143
18,06933	19169
18,08000	19214
18,09067	19286
18,10133	19342
18,11200	19381
18,12267	19417
18,13333	19428
18,14400	19413
18,15467	19368
18,16533	19312
18,17600	19239
18,18667	19151
18,19733	19043
18,20800	18939
18,21867	18823
18,22933	18722
18,24000	18615
18,25067	18527
18,26133	18457
18,27200	18409
18,28267	18385
18,29333	18400
18,30400	18448
18,31467	18525
18,32533	18629
18,33600	18763
18,34667	18926
18,35733	19112
18,36800	19312
18,37867	19529
18,38933	19773
18,40000	20028
18,41067	20310
18,42133	20614
18,43200	20933
18,44267	21241
18,45333	21539
18,46400	21802
18,47467	22010
18,48533	22134
18,49600	22167
18,50667	22107
18,51733	21947
18,52800	21703
18,53867	21390
18,54933	21032
18,56000	20651
18,57067	20279
18,58133	19929
18,59200	19631
18,60267	19383
18,61333	19198
18,62400	19079
18,63467	19015
18,64533	19007
18,65600	19019
18,66667	19066
18,67733	19136
18,68800	19201
18,69867	19264
18,70933	19310
18,72000	19347
18,73067	19376
18,74133	19385
18,75200	19376
18,76267	19355
18,77333	19316
18,78400	19265
18,79467	19208
18,80533	19145
18,81600	19077
18,82667	19025
18,83733	18991
18,84800	18981
18,85867	19000
18,86933	19046
18,88000	19134
18,89067	19244
18,90133	19391
18,91200	19565
18,92267	19742
18,93333	19942
18,94400	20138
18,95467	20363
18,96533	20586
18,97600	20808
18,98667	21044
18,99733	21285
19,00800	21516
19,01867	21742
19,02933	21964
19,04000	22158
19,05067	22347
19,06133	22501
19,07200	22628
19,08267	22722
19,09333	22779
19,10400	22810
19,11467	22819
19,12533	22813
19,13600	22810
19,14667	22828
19,15733	22859
19,16800	22925
19,17867	23039
19,18933	23196
19,20000	23409
19,21067	23678
19,22133	23979
19,23200	24302
19,24267	24639
19,25333	24938
19,26400	25185
19,27467	25367
19,28533	25445
19,29600	25408
19,30667	25267
19,31733	25013
19,32800	24672
19,33867	24244
19,34933	23774
19,36000	23283
19,37067	22806
19,38133	22366
19,39200	21988
19,40267	21683
19,41333	21457
19,42400	21333
19,43467	21330
19,44533	21491
19,45600	21871
19,46667	22586
19,47733	23806
19,48800	25737
19,49867	28701
19,50933	33029
19,52000	39166
19,53067	47459
19,54133	58311
19,55200	71854
19,56267	88111
19,57333	106642
19,58400	126879
19,59467	147703
19,60533	167919
19,61600	186101
19,62667	200911
19,63733	211273
19,64800	216417
19,65867	216054
19,66933	210438
19,68000	200136
19,69067	186170
19,70133	169601
19,71200	151701
19,72267	133480
19,73333	115923
19,74400	99629
19,75467	85105
19,76533	72484
19,77600	61844
19,78667	53044
19,79733	45893
19,80800	40193
19,81867	35696
19,82933	32190
19,84000	29513
19,85067	27535
19,86133	26151
19,87200	25290
19,88267	24879
19,89333	24882
19,90400	25263
19,91467	25973
19,92533	26969
19,93600	28163
19,94667	29480
19,95733	30821
19,96800	32073
19,97867	33142
19,98933	33935
20,00000	34390
20,01067	34460
20,02133	34150
20,03200	33493
20,04267	32538
20,05333	31371
20,06400	30074
20,07467	28747
20,08533	27454
20,09600	26282
20,10667	25305
20,11733	24586
20,12800	24221
20,13867	24328
20,14933	25108
20,16000	26879
20,17067	30111
20,18133	35548
20,19200	44136
20,20267	57293
20,21333	76583
20,22400	104089
20,23467	141630
20,24533	191284
20,25600	253891
20,26667	329901
20,27733	417524
20,28800	514006
20,29867	613837
20,30933	711071
20,32000	798868
20,33067	871149
20,34133	923063
20,35200	951472
20,36267	955438
20,37333	935788
20,38400	895015
20,39467	837177
20,40533	766386
20,41600	687790
20,42667	605587
20,43733	524241
20,44800	446699
20,45867	375640
20,46933	312148
20,48000	257094
20,49067	210361
20,50133	171503
20,51200	139695
20,52267	113971
20,53333	93477
20,54400	77242
20,55467	64539
20,56533	54610
20,57600	46930
20,58667	41015
20,59733	36511
20,60800	33092
20,61867	30554
20,62933	28692
20,64000	27372
20,65067	26449
20,66133	25837
20,67200	25461
20,68267	25245
20,69333	25154
20,70400	25133
20,71467	25165
20,72533	25221
20,73600	25262
20,74667	25278
20,75733	25262
20,76800	25192
20,77867	25075
20,78933	24899
20,80000	24677
20,81067	24429
20,82133	24158
20,83200	23891
20,84267	23646
20,85333	23425
20,86400	23253
20,87467	23138
20,88533	23061
20,89600	23034
20,90667	23035
20,91733	23061
20,92800	23129
20,93867	23224
20,94933	23348
20,96000	23510
20,97067	23731
20,98133	24002
20,99200	24344
21,00267	24761
21,01333	25265
21,02400	25836
21,03467	26476
21,04533	27139
21,05600	27803
21,06667	28449
21,07733	29000
21,08800	29442
21,09867	29724
21,10933	29828
21,12000	29729
21,13067	29436
21,14133	28970
21,15200	28357
21,16267	27650
21,17333	26880
21,18400	26117
21,19467	25393
21,20533	24780
21,21600	24284
21,22667	23927
21,23733	23709
21,24800	23646
21,25867	23729
21,26933	23939
21,28000	24258
21,29067	24693
21,30133	25255
21,31200	25933
21,32267	26746
21,33333	27747
21,34400	28934
21,35467	30371
21,36533	32129
21,37600	34307
21,38667	37062
21,39733	40606
21,40800	45208
21,41867	51206
21,42933	59064
21,44000	69172
21,45067	82003
21,46133	97819
21,47200	116919
21,48267	139162
21,49333	164328
21,50400	191571
21,51467	220041
21,52533	248336
21,53600	275115
21,54667	298766
21,55733	317971
21,56800	331568
21,57867	338807
21,58933	339352
21,60000	333280
21,61067	321150
21,62133	303907
21,63200	282585
21,64267	258556
21,65333	232915
21,66400	206962
21,67467	181552
21,68533	157625
21,69600	135646
21,70667	116041
21,71733	98873
21,72800	84200
21,73867	71860
21,74933	61651
21,76000	53315
21,77067	46584
21,78133	41216
21,79200	36960
21,80267	33619
21,81333	31024
21,82400	29023
21,83467	27487
21,84533	26337
21,85600	25481
21,86667	24861
21,87733	24441
21,88800	24154
21,89867	23973
21,90933	23874
21,92000	23825
21,93067	23823
21,94133	23836
21,95200	23868
21,96267	23898
21,97333	23924
21,98400	23934
21,99467	23957
22,00533	23973
22,01600	24000
22,02667	24038
22,03733	24103
22,04800	24179
22,05867	24269
22,06933	24341
22,08000	24392
22,09067	24418
22,10133	24409
22,11200	24337
22,12267	24200
22,13333	24007
22,14400	23776
22,15467	23523
22,16533	23275
22,17600	23054
22,18667	22855
22,19733	22702
22,20800	22628
22,21867	22606
22,22933	22654
22,24000	22740
22,25067	22879
22,26133	23020
22,27200	23169
22,28267	23320
22,29333	23438
22,30400	23539
22,31467	23615
22,32533	23671
22,33600	23724
22,34667	23788
22,35733	23873
22,36800	23984
22,37867	24145
22,38933	24329
22,40000	24509
22,41067	24689
22,42133	24828
22,43200	24909
22,44267	24911
22,45333	24805
22,46400	24597
22,47467	24297
22,48533	23907
22,49600	23466
22,50667	23003
22,51733	22559
22,52800	22196
22,53867	21963
22,54933	21986
22,56000	22382
22,57067	23318
22,58133	25085
22,59200	28042
22,60267	32708
22,61333	39620
22,62400	49532
22,63467	63139
22,64533	81099
22,65600	103890
22,66667	131532
22,67733	163831
22,68800	199646
22,69867	237634
22,70933	275511
22,72000	311147
22,73067	341981
22,74133	365998
22,75200	381525
22,76267	387705
22,77333	384525
22,78400	372592
22,79467	353328
22,80533	328396
22,81600	299726
22,82667	269194
22,83733	238466
22,84800	208982
22,85867	181588
22,86933	156970
22,88000	135291
22,89067	116664
22,90133	100815
22,91200	87494
22,92267	76320
22,93333	66998
22,94400	59197
22,95467	52655
22,96533	47150
22,97600	42515
22,98667	38601
22,99733	35297
23,00800	32501
23,01867	30172
23,02933	28231
23,04000	26635
23,05067	25336
23,06133	24315
23,07200	23518
23,08267	22944
23,09333	22558
23,10400	22344
23,11467	22292
23,12533	22379
23,13600	22608
23,14667	22952
23,15733	23396
23,16800	23915
23,17867	24479
23,18933	25045
23,20000	25578
23,21067	26043
23,22133	26391
23,23200	26585
23,24267	26615
23,25333	26486
23,26400	26187
23,27467	25746
23,28533	25195
23,29600	24557
23,30667	23872
23,31733	23169
23,32800	22480
23,33867	21833
23,34933	21219
23,36000	20668
23,37067	20170
23,38133	19764
23,39200	19416
23,40267	19129
23,41333	18912
23,42400	18741
23,43467	18636
23,44533	18578
23,45600	18555
23,46667	18591
23,47733	18674
23,48800	18827
23,49867	19036
23,50933	19320
23,52000	19688
23,53067	20153
23,54133	20703
23,55200	21348
23,56267	22081
23,57333	22855
23,58400	23647
23,59467	24399
23,60533	25060
23,61600	25591
23,62667	25950
23,63733	26099
23,64800	26023
23,65867	25756
23,66933	25311
23,68000	24722
23,69067	24036
23,70133	23316
23,71200	22599
23,72267	21907
23,73333	21286
23,74400	20748
23,75467	20291
23,76533	19921
23,77600	19619
23,78667	19383
23,79733	19194
23,80800	19062
23,81867	18954
23,82933	18876
23,84000	18820
23,85067	18767
23,86133	18725
23,87200	18692
23,88267	18668
23,89333	18654
23,90400	18675
23,91467	18734
23,92533	18856
23,93600	19075
23,94667	19441
23,95733	19989
23,96800	20790
23,97867	21925
23,98933	23443
24,00000	25441
24,01067	28025
24,02133	31213
24,03200	35108
24,04267	39683
24,05333	44956
24,06400	50810
24,07467	57116
24,08533	63658
24,09600	70166
24,10667	76361
24,11733	81894
24,12800	86481
24,13867	89846
24,14933	91808
24,16000	92248
24,17067	91173
24,18133	88656
24,19200	84883
24,20267	80113
24,21333	74621
24,22400	68718
24,23467	62688
24,24533	56785
24,25600	51201
24,26667	46117
24,27733	41617
24,28800	37727
24,29867	34462
24,30933	31772
24,32000	29605
24,33067	27891
24,34133	26539
24,35200	25484
24,36267	24644
24,37333	23969
24,38400	23413
24,39467	22951
24,40533	22525
24,41600	22151
24,42667	21810
24,43733	21512
24,44800	21245
24,45867	21026
24,46933	20848
24,48000	20740
24,49067	20708
24,50133	20777
24,51200	20957
24,52267	21272
24,53333	21741
24,54400	22375
24,55467	23175
24,56533	24133
24,57600	25242
24,58667	26442
24,59733	27680
24,60800	28895
24,61867	30026
24,62933	30994
24,64000	31733
24,65067	32186
24,66133	32320
24,67200	32144
24,68267	31648
24,69333	30889
24,70400	29906
24,71467	28748
24,72533	27513
24,73600	26231
24,74667	24979
24,75733	23790
24,76800	22714
24,77867	21782
24,78933	20990
24,80000	20363
24,81067	19895
24,82133	19579
24,83200	19410
24,84267	19390
24,85333	19510
24,86400	19759
24,87467	20133
24,88533	20598
24,89600	21146
24,90667	21755
24,91733	22387
24,92800	22991
24,93867	23553
24,94933	24046
24,96000	24461
24,97067	24798
24,98133	25078
24,99200	25311
25,00267	25557
25,01333	25832
25,02400	26182
25,03467	26611
25,04533	27120
25,05600	27682
25,06667	28264
25,07733	28810
25,08800	29245
25,09867	29527
25,10933	29600
25,12000	29451
25,13067	29053
25,14133	28439
25,15200	27639
25,16267	26710
25,17333	25687
25,18400	24645
25,19467	23617
25,20533	22670
25,21600	21812
25,22667	21058
25,23733	20413
25,24800	19879
25,25867	19438
25,26933	19078
25,28000	18777
25,29067	18527
25,30133	18305
25,31200	18101
25,32267	17912
25,33333	17722
25,34400	17535
25,35467	17357
25,36533	17201
25,37600	17035
25,38667	16899
25,39733	16778
25,40800	16682
25,41867	16633
25,42933	16625
25,44000	16653
25,45067	16747
25,46133	16901
25,47200	17117
25,48267	17405
25,49333	17763
25,50400	18184
25,51467	18647
25,52533	19143
25,53600	19666
25,54667	20158
25,55733	20611
25,56800	21000
25,57867	21304
25,58933	21510
25,60000	21612
25,61067	21630
25,62133	21574
25,63200	21484
25,64267	21385
25,65333	21341
25,66400	21364
25,67467	21498
25,68533	21750
25,69600	22135
25,70667	22608
25,71733	23154
25,72800	23722
25,73867	24255
25,74933	24692
25,76000	24975
25,77067	25077
25,78133	24984
25,79200	24689
25,80267	24226
25,81333	23621
25,82400	22906
25,83467	22147
25,84533	21389
25,85600	20669
25,86667	19999
25,87733	19414
25,88800	18922
25,89867	18511
25,90933	18184
25,92000	17919
25,93067	17708
25,94133	17536
25,95200	17390
25,96267	17281
25,97333	17179
25,98400	17095
25,99467	17004
26,00533	16924
26,01600	16850
26,02667	16783
26,03733	16720
26,04800	16665
26,05867	16609
26,06933	16565
26,08000	16531
26,09067	16500
26,10133	16465
26,11200	16436
26,12267	16421
26,13333	16404
26,14400	16394
26,15467	16378
26,16533	16371
26,17600	16371
26,18667	16352
26,19733	16351
26,20800	16331
26,21867	16314
26,22933	16293
26,24000	16266
26,25067	16240
26,26133	16204
26,27200	16167
26,28267	16133
26,29333	16102
26,30400	16056
26,31467	16023
26,32533	15994
26,33600	15949
26,34667	15912
26,35733	15860
26,36800	15816
26,37867	15759
26,38933	15714
26,40000	15658
26,41067	15614
26,42133	15580
26,43200	15547
26,44267	15517
26,45333	15491
26,46400	15496
26,47467	15500
26,48533	15514
26,49600	15540
26,50667	15575
26,51733	15612
26,52800	15637
26,53867	15657
26,54933	15675
26,56000	15686
26,57067	15672
26,58133	15664
26,59200	15651
26,60267	15633
26,61333	15624
26,62400	15612
26,63467	15600
26,64533	15590
26,65600	15584
26,66667	15580
26,67733	15586
26,68800	15584
26,69867	15595
26,70933	15591
26,72000	15598
26,73067	15594
26,74133	15587
26,75200	15584
26,76267	15581
26,77333	15577
26,78400	15588
26,79467	15595
26,80533	15608
26,81600	15634
26,82667	15667
26,83733	15727
26,84800	15803
26,85867	15913
26,86933	16074
26,88000	16272
26,89067	16537
26,90133	16863
26,91200	17244
26,92267	17675
26,93333	18147
26,94400	18634
26,95467	19103
26,96533	19543
26,97600	19923
26,98667	20195
26,99733	20365
27,00800	20414
27,01867	20340
27,02933	20151
27,04000	19880
27,05067	19526
27,06133	19133
27,07200	18720
27,08267	18311
27,09333	17913
27,10400	17540
27,11467	17202
27,12533	16900
27,13600	16628
27,14667	16384
27,15733	16179
27,16800	15994
27,17867	15826
27,18933	15678
27,20000	15540
27,21067	15416
27,22133	15306
27,23200	15207
27,24267	15111
27,25333	15039
27,26400	14973
27,27467	14921
27,28533	14881
27,29600	14861
27,30667	14852
27,31733	14876
27,32800	14914
27,33867	14973
27,34933	15052
27,36000	15147
27,37067	15248
27,38133	15371
27,39200	15477
27,40267	15580
27,41333	15680
27,42400	15759
27,43467	15822
27,44533	15869
27,45600	15886
27,46667	15899
27,47733	15894
27,48800	15879
27,49867	15863
27,50933	15864
27,52000	15877
27,53067	15898
27,54133	15935
27,55200	15980
27,56267	16022
27,57333	16060
27,58400	16086
27,59467	16102
27,60533	16109
27,61600	16084
27,62667	16050
27,63733	15981
27,64800	15895
27,65867	15818
27,66933	15712
27,68000	15609
27,69067	15490
27,70133	15382
27,71200	15262
27,72267	15144
27,73333	15018
27,74400	14915
27,75467	14804
27,76533	14705
27,77600	14629
27,78667	14548
27,79733	14478
27,80800	14432
27,81867	14386
27,82933	14351
27,84000	14328
27,85067	14311
27,86133	14305
27,87200	14305
27,88267	14315
27,89333	14326
27,90400	14348
27,91467	14368
27,92533	14393
27,93600	14412
27,94667	14435
27,95733	14448
27,96800	14458
27,97867	14474
27,98933	14487
28,00000	14489
28,01067	14498
28,02133	14507
28,03200	14527
28,04267	14548
28,05333	14566
28,06400	14590
28,07467	14619
28,08533	14659
28,09600	14702
28,10667	14737
28,11733	14781
28,12800	14807
28,13867	14832
28,14933	14865
28,16000	14886
28,17067	14906
28,18133	14930
28,19200	14966
28,20267	15002
28,21333	15056
28,22400	15115
28,23467	15189
28,24533	15288
28,25600	15383
28,26667	15500
28,27733	15608
28,28800	15722
28,29867	15828
28,30933	15915
28,32000	15972
28,33067	16003
28,34133	15988
28,35200	15962
28,36267	15914
28,37333	15850
28,38400	15770
28,39467	15689
28,40533	15615
28,41600	15541
28,42667	15470
28,43733	15418
28,44800	15378
28,45867	15314
28,46933	15276
28,48000	15242
28,49067	15206
28,50133	15171
28,51200	15141
28,52267	15124
28,53333	15128
28,54400	15143
28,55467	15167
28,56533	15201
28,57600	15256
28,58667	15316
28,59733	15379
28,60800	15442
28,61867	15498
28,62933	15529
28,64000	15571
28,65067	15584
28,66133	15600
28,67200	15603
28,68267	15604
28,69333	15592
28,70400	15586
28,71467	15584
28,72533	15593
28,73600	15593
28,74667	15589
28,75733	15584
28,76800	15575
28,77867	15556
28,78933	15508
28,80000	15456
28,81067	15397
28,82133	15316
28,83200	15231
28,84267	15132
28,85333	15051
28,86400	14973
28,87467	14906
28,88533	14836
28,89600	14785
28,90667	14738
28,91733	14706
28,92800	14691
28,93867	14673
28,94933	14650
28,96000	14636
28,97067	14616
28,98133	14591
28,99200	14565
29,00267	14525
29,01333	14476
29,02400	14418
29,03467	14368
29,04533	14307
29,05600	14240
29,06667	14177
29,07733	14111
29,08800	14045
29,09867	13991
29,10933	13943
29,12000	13892
29,13067	13850
29,14133	13812
29,15200	13776
29,16267	13746
29,17333	13717
29,18400	13695
29,19467	13678
29,20533	13673
29,21600	13666
29,22667	13660
29,23733	13676
29,24800	13676
29,25867	13683
29,26933	13705
29,28000	13725
29,29067	13744
29,30133	13769
29,31200	13809
29,32267	13845
29,33333	13899
29,34400	13965
29,35467	14038
29,36533	14122
29,37600	14221
29,38667	14339
29,39733	14465
29,40800	14610
29,41867	14749
29,42933	14892
29,44000	15033
29,45067	15160
29,46133	15266
29,47200	15350
29,48267	15411
29,49333	15445
29,50400	15446
29,51467	15435
29,52533	15426
29,53600	15413
29,54667	15398
29,55733	15394
29,56800	15401
29,57867	15421
29,58933	15456
29,60000	15479
29,61067	15508
29,62133	15520
29,63200	15509
29,64267	15476
29,65333	15414
29,66400	15315
29,67467	15205
29,68533	15069
29,69600	14924
29,70667	14779
29,71733	14627
29,72800	14492
29,73867	14373
29,74933	14276
29,76000	14191
29,77067	14137
29,78133	14106
29,79200	14098
29,80267	14114
29,81333	14156
29,82400	14205
29,83467	14272
29,84533	14344
29,85600	14444
29,86667	14539
29,87733	14632
29,88800	14718
29,89867	14801
29,90933	14866
29,92000	14923
29,93067	14954
29,94133	14969
29,95200	14968
29,96267	14943
29,97333	14893
29,98400	14840
29,99467	14769
30,00533	14674
30,01600	14595
30,02667	14516
30,03733	14434
30,04800	14361
30,05867	14284
30,06933	14210
30,08000	14145
30,09067	14088
30,10133	14042
30,11200	14003
30,12267	13959
30,13333	13924
30,14400	13897
30,15467	13877
30,16533	13852
30,17600	13834
30,18667	13811
30,19733	13796
30,20800	13777
30,21867	13766
30,22933	13762
30,24000	13760
30,25067	13747
30,26133	13734
30,27200	13743
30,28267	13743
30,29333	13738
30,30400	13745
30,31467	13751
30,32533	13742
30,33600	13745
30,34667	13752
30,35733	13760
30,36800	13756
30,37867	13753
30,38933	13750
30,40000	13749
30,41067	13750
30,42133	13748
30,43200	13739
30,44267	13736
30,45333	13736
30,46400	13733
30,47467	13728
30,48533	13736
30,49600	13755
30,50667	13775
30,51733	13796
30,52800	13825
30,53867	13846
30,54933	13895
30,56000	13938
30,57067	13984
30,58133	14036
30,59200	14078
30,60267	14139
30,61333	14192
30,62400	14244
30,63467	14299
30,64533	14354
30,65600	14390
30,66667	14427
30,67733	14453
30,68800	14470
30,69867	14477
30,70933	14472
30,72000	14461
30,73067	14433
30,74133	14402
30,75200	14359
30,76267	14308
30,77333	14254
30,78400	14211
30,79467	14166
30,80533	14128
30,81600	14088
30,82667	14050
30,83733	14014
30,84800	13995
30,85867	13981
30,86933	13960
30,88000	13947
30,89067	13935
30,90133	13935
30,91200	13937
30,92267	13937
30,93333	13937
30,94400	13942
30,95467	13941
30,96533	13956
30,97600	13963
30,98667	13967
30,99733	13956
31,00800	13947
31,01867	13932
31,02933	13925
31,04000	13918
31,05067	13903
31,06133	13896
31,07200	13894
31,08267	13885
31,09333	13893
31,10400	13900
31,11467	13916
31,12533	13941
31,13600	13963
31,14667	13989
31,15733	14020
31,16800	14044
31,17867	14055
31,18933	14076
31,20000	14083
31,21067	14086
31,22133	14067
31,23200	14055
31,24267	14029
31,25333	14000
31,26400	13967
31,27467	13937
31,28533	13907
31,29600	13878
31,30667	13854
31,31733	13833
31,32800	13810
31,33867	13795
31,34933	13791
31,36000	13783
31,37067	13777
31,38133	13766
31,39200	13761
31,40267	13763
31,41333	13761
31,42400	13762
31,43467	13753
31,44533	13755
31,45600	13748
31,46667	13753
31,47733	13756
31,48800	13753
31,49867	13756
31,50933	13750
31,52000	13752
31,53067	13754
31,54133	13759
31,55200	13760
31,56267	13760
31,57333	13756
31,58400	13765
31,59467	13753
31,60533	13750
31,61600	13740
31,62667	13730
31,63733	13719
31,64800	13718
31,65867	13714
31,66933	13705
31,68000	13709
31,69067	13708
31,70133	13704
31,71200	13698
31,72267	13696
31,73333	13699
31,74400	13697
31,75467	13698
31,76533	13695
31,77600	13695
31,78667	13704
31,79733	13706
31,80800	13693
31,81867	13687
31,82933	13691
31,84000	13694
31,85067	13688
31,86133	13688
31,87200	13692
31,88267	13699
31,89333	13695
31,90400	13697
31,91467	13703
31,92533	13719
31,93600	13723
31,94667	13723
31,95733	13722
31,96800	13727
31,97867	13721
31,98933	13715
32,00000	13708
32,01067	13708
32,02133	13704
32,03200	13703
32,04267	13705
32,05333	13698
32,06400	13691
32,07467	13690
32,08533	13698
32,09600	13686
32,10667	13686
32,11733	13695
32,12800	13694
32,13867	13704
32,14933	13704
32,16000	13707
32,17067	13717
32,18133	13719
32,19200	13714
32,20267	13722
32,21333	13725
32,22400	13737
32,23467	13738
32,24533	13746
32,25600	13754
32,26667	13763
32,27733	13768
32,28800	13773
32,29867	13789
32,30933	13796
32,32000	13804
32,33067	13824
32,34133	13835
32,35200	13851
32,36267	13869
32,37333	13886
32,38400	13897
32,39467	13908
32,40533	13912
32,41600	13926
32,42667	13946
32,43733	13953
32,44800	13962
32,45867	13975
32,46933	13984
32,48000	13997
32,49067	14002
32,50133	14019
32,51200	14037
32,52267	14052
32,53333	14072
32,54400	14091
32,55467	14114
32,56533	14133
32,57600	14164
32,58667	14191
32,59733	14216
32,60800	14239
32,61867	14269
32,62933	14308
32,64000	14332
32,65067	14365
32,66133	14396
32,67200	14434
32,68267	14464
32,69333	14492
32,70400	14534
32,71467	14580
32,72533	14618
32,73600	14661
32,74667	14709
32,75733	14762
32,76800	14808
32,77867	14867
32,78933	14919
32,80000	14993
32,81067	15070
32,82133	15152
32,83200	15231
32,84267	15318
32,85333	15408
32,86400	15515
32,87467	15614
32,88533	15729
32,89600	15844
32,90667	15959
32,91733	16070
32,92800	16193
32,93867	16314
32,94933	16438
32,96000	16561
32,97067	16662
32,98133	16773
32,99200	16891
33,00267	16997
33,01333	17103
33,02400	17202
33,03467	17311
33,04533	17419
33,05600	17525
33,06667	17624
33,07733	17740
33,08800	17865
33,09867	17983
33,10933	18106
33,12000	18237
33,13067	18380
33,14133	18518
33,15200	18653
33,16267	18783
33,17333	18906
33,18400	19023
33,19467	19138
33,20533	19245
33,21600	19341
33,22667	19438
33,23733	19533
33,24800	19627
33,25867	19713
33,26933	19813
33,28000	19902
33,29067	20005
33,30133	20089
33,31200	20176
33,32267	20269
33,33333	20376
33,34400	20491
33,35467	20606
33,36533	20729
33,37600	20854
33,38667	20976
33,39733	21119
33,40800	21252
33,41867	21385
33,42933	21513
33,44000	21648
33,45067	21789
33,46133	21935
33,47200	22059
33,48267	22182
33,49333	22312
33,50400	22438
33,51467	22561
33,52533	22693
33,53600	22824
33,54667	22948
33,55733	23051
33,56800	23164
33,57867	23285
33,58933	23404
33,60000	23519
33,61067	23636
33,62133	23761
33,63200	23879
33,64267	23985
33,65333	24085
33,66400	24167
33,67467	24252
33,68533	24327
33,69600	24400
33,70667	24467
33,71733	24551
33,72800	24624
33,73867	24721
33,74933	24830
33,76000	24966
33,77067	25123
33,78133	25302
33,79200	25505
33,80267	25711
33,81333	25901
33,82400	26025
33,83467	26086
33,84533	26100
33,85600	26117
33,86667	26169
33,87733	26275
33,88800	26461
33,89867	26722
33,90933	27017
33,92000	27312
33,93067	27602
33,94133	27868
33,95200	28106
33,96267	28286
33,97333	28397
33,98400	28409
33,99467	28363
34,00533	28261
34,01600	28141
34,02667	28046
34,03733	28022
34,04800	28055
34,05867	28113
34,06933	28182
34,08000	28254
34,09067	28295
34,10133	28304
34,11200	28299
34,12267	28308
34,13333	28352
34,14400	28412
34,15467	28485
34,16533	28567
34,17600	28686
34,18667	28832
34,19733	28996
34,20800	29164
34,21867	29330
34,22933	29498
34,24000	29654
34,25067	29810
34,26133	29969
34,27200	30127
34,28267	30257
34,29333	30337
34,30400	30398
34,31467	30458
34,32533	30533
34,33600	30671
34,34667	30865
34,35733	31124
34,36800	31416
34,37867	31685
34,38933	31897
34,40000	32066
34,41067	32232
34,42133	32408
34,43200	32601
34,44267	32857
34,45333	33188
34,46400	33626
34,47467	34144
34,48533	34638
34,49600	35006
34,50667	35130
34,51733	34973
34,52800	34584
34,53867	34090
34,54933	33603
34,56000	33205
34,57067	32927
34,58133	32767
34,59200	32686
34,60267	32681
34,61333	32701
34,62400	32740
34,63467	32784
34,64533	32821
34,65600	32846
34,66667	32853
34,67733	32860
34,68800	32867
34,69867	32885
34,70933	32925
34,72000	32990
34,73067	33097
34,74133	33242
34,75200	33410
34,76267	33630
34,77333	33883
34,78400	34153
34,79467	34379
34,80533	34523
34,81600	34578
34,82667	34582
34,83733	34585
34,84800	34612
34,85867	34661
34,86933	34706
34,88000	34731
34,89067	34758
34,90133	34790
34,91200	34831
34,92267	34871
34,93333	34921
34,94400	34985
34,95467	35105
34,96533	35347
34,97600	36033
34,98667	38032
34,99733	42976
35,00800	52510
35,01867	67730
35,02933	88407
35,04000	112809
35,05067	135451
35,06133	148535
35,07200	147647
35,08267	135272
35,09333	117930
35,10400	101049
35,11467	87226
35,12533	76804
35,13600	69229
35,14667	63885
35,15733	60238
35,16800	57836
35,17867	56152
35,18933	54762
35,20000	53420
35,21067	52125
35,22133	50942
35,23200	49934
35,24267	49106
35,25333	48420
35,26400	47843
35,27467	47347
35,28533	46923
35,29600	46531
35,30667	46179
35,31733	45867
35,32800	45610
35,33867	45415
35,34933	45292
35,36000	45149
35,37067	44835
35,38133	44348
35,39200	43810
35,40267	43399
35,41333	43229
35,42400	43454
35,43467	44390
35,44533	46270
35,45600	48836
35,46667	51282
35,47733	52773
35,48800	53039
35,49867	52404
35,50933	51277
35,52000	49861
35,53067	48340
35,54133	47016
35,55200	46281
35,56267	46338
35,57333	47011
35,58400	47680
35,59467	47782
35,60533	47211
35,61600	46264
35,62667	45293
35,63733	44457
35,64800	43795
35,65867	43258
35,66933	42868
35,68000	42570
35,69067	42356
35,70133	42203
35,71200	42110
35,72267	42080
35,73333	42066
35,74400	42067
35,75467	42099
35,76533	42158
35,77600	42286
35,78667	42514
35,79733	42883
35,80800	43434
35,81867	44045
35,82933	44579
35,84000	44845
35,85067	44871
35,86133	44768
35,87200	44608
35,88267	44407
35,89333	44140
35,90400	43788
35,91467	43394
35,92533	43014
35,93600	42694
35,94667	42444
35,95733	42258
35,96800	42141
35,97867	42077
35,98933	42087
36,00000	42156
36,01067	42267
36,02133	42367
36,03200	42423
36,04267	42401
36,05333	42334
36,06400	42241
36,07467	42152
36,08533	42099
36,09600	42093
36,10667	42126
36,11733	42183
36,12800	42256
36,13867	42352
36,14933	42481
36,16000	42654
36,17067	42828
36,18133	43013
36,19200	43184
36,20267	43330
36,21333	43464
36,22400	43608
36,23467	43729
36,24533	43784
36,25600	43747
36,26667	43657
36,27733	43607
36,28800	43691
36,29867	43961
36,30933	44390
36,32000	44803
36,33067	45013
36,34133	44915
36,35200	44599
36,36267	44207
36,37333	43846
36,38400	43556
36,39467	43347
36,40533	43170
36,41600	43020
36,42667	42900
36,43733	42804
36,44800	42736
36,45867	42690
36,46933	42668
36,48000	42669
36,49067	42671
36,50133	42689
36,51200	42710
36,52267	42733
36,53333	42738
36,54400	42736
36,55467	42740
36,56533	42760
36,57600	42768
36,58667	42765
36,59733	42774
36,60800	42780
36,61867	42779
36,62933	42793
36,64000	42809
36,65067	42840
36,66133	42872
36,67200	42926
36,68267	42990
36,69333	43041
36,70400	43097
36,71467	43129
36,72533	43150
36,73600	43193
36,74667	43261
36,75733	43351
36,76800	43441
36,77867	43498
36,78933	43486
36,80000	43425
36,81067	43316
36,82133	43197
36,83200	43093
36,84267	43020
36,85333	42964
36,86400	42938
36,87467	42929
36,88533	42926
36,89600	42914
36,90667	42904
36,91733	42902
36,92800	42904
36,93867	42902
36,94933	42909
36,96000	42940
36,97067	43010
36,98133	43125
36,99200	43304
37,00267	43533
37,01333	43804
37,02400	44048
37,03467	44219
37,04533	44270
37,05600	44205
37,06667	44030
37,07733	43804
37,08800	43568
37,09867	43358
37,10933	43191
37,12000	43066
37,13067	42981
37,14133	42929
37,15200	42916
37,16267	42925
37,17333	42957
37,18400	43035
37,19467	43137
37,20533	43242
37,21600	43322
37,22667	43374
37,23733	43363
37,24800	43318
37,25867	43233
37,26933	43137
37,28000	43051
37,29067	42993
37,30133	42943
37,31200	42924
37,32267	42901
37,33333	42885
37,34400	42876
37,35467	42870
37,36533	42861
37,37600	42867
37,38667	42868
37,39733	42868
37,40800	42880
37,41867	42886
37,42933	42886
37,44000	42892
37,45067	42897
37,46133	42901
37,47200	42911
37,48267	42918
37,49333	42933
37,50400	42945
37,51467	42956
37,52533	42963
37,53600	42966
37,54667	42965
37,55733	42958
37,56800	42946
37,57867	42953
37,58933	42956
37,60000	42957
37,61067	42957
37,62133	42971
37,63200	42995
37,64267	43018
37,65333	43045
37,66400	43063
37,67467	43093
37,68533	43124
37,69600	43143
37,70667	43152
37,71733	43159
37,72800	43161
37,73867	43169
37,74933	43168
37,76000	43174
37,77067	43178
37,78133	43190
37,79200	43195
37,80267	43192
37,81333	43194
37,82400	43201
37,83467	43214
37,84533	43236
37,85600	43276
37,86667	43330
37,87733	43398
37,88800	43474
37,89867	43539
37,90933	43597
37,92000	43625
37,93067	43623
37,94133	43591
37,95200	43532
37,96267	43463
37,97333	43387
37,98400	43311
37,99467	43241
38,00533	43185
38,01600	43145
38,02667	43111
38,03733	43080
38,04800	43069
38,05867	43061
38,06933	43053
38,08000	43051
38,09067	43052
38,10133	43060
38,11200	43044
38,12267	43053
38,13333	43055
38,14400	43062
38,15467	43061
38,16533	43060
38,17600	43069
38,18667	43062
38,19733	43064
38,20800	43075
38,21867	43080
38,22933	43095
38,24000	43105
38,25067	43110
38,26133	43118
38,27200	43131
38,28267	43133
38,29333	43125
38,30400	43127
38,31467	43123
38,32533	43117
38,33600	43111
38,34667	43110
38,35733	43109
38,36800	43105
38,37867	43103
38,38933	43107
38,40000	43105
38,41067	43110
38,42133	43110
38,43200	43115
38,44267	43118
38,45333	43122
38,46400	43116
38,47467	43128
38,48533	43134
38,49600	43139
38,50667	43142
38,51733	43143
38,52800	43143
38,53867	43148
38,54933	43164
38,56000	43169
38,57067	43166
38,58133	43165
38,59200	43173
38,60267	43170
38,61333	43167
38,62400	43170
38,63467	43187
38,64533	43198
38,65600	43203
38,66667	43212
38,67733	43225
38,68800	43232
38,69867	43264
38,70933	43287
38,72000	43295
38,73067	43315
38,74133	43356
38,75200	43420
38,76267	43527
38,77333	43705
38,78400	44023
38,79467	44525
38,80533	45330
38,81600	46529
38,82667	48241
38,83733	50569
38,84800	53580
38,85867	57181
38,86933	61192
38,88000	65267
38,89067	68927
38,90133	71734
38,91200	73251
38,92267	73260
38,93333	71794
38,94400	69076
38,95467	65544
38,96533	61654
38,97600	57854
38,98667	54440
38,99733	51611
39,00800	49387
39,01867	47743
39,02933	46556
39,04000	45732
39,05067	45165
39,06133	44764
39,07200	44473
39,08267	44264
39,09333	44087
39,10400	43946
39,11467	43812
39,12533	43688
39,13600	43562
39,14667	43435
39,15733	43308
39,16800	43189
39,17867	43067
39,18933	42925
39,20000	42780
39,21067	42630
39,22133	42479
39,23200	42322
39,24267	42152
39,25333	41978
39,26400	41795
39,27467	41601
39,28533	41402
39,29600	41198
39,30667	40992
39,31733	40760
39,32800	40542
39,33867	40317
39,34933	40088
39,36000	39847
39,37067	39607
39,38133	39386
39,39200	39172
39,40267	38938
39,41333	38698
39,42400	38482
39,43467	38285
39,44533	38089
39,45600	37886
39,46667	37675
39,47733	37484
39,48800	37274
39,49867	37049
39,50933	36807
39,52000	36551
39,53067	36259
39,54133	35930
39,55200	35579
39,56267	35237
39,57333	34906
39,58400	34579
39,59467	34225
39,60533	33848
39,61600	33385
39,62667	32828
39,63733	32167
39,64800	31368
39,65867	30455
39,66933	29442
39,68000	28353
39,69067	27217
39,70133	26039
39,71200	24848
39,72267	23651
39,73333	22439
39,74400	21216
39,75467	19981
39,76533	18774
39,77600	17606
39,78667	16492
39,79733	15444
39,80800	14450
39,81867	13508
39,82933	12638
39,84000	11826
39,85067	11055
39,86133	10354
39,87200	9698
39,88267	9111
39,89333	8546
39,90400	8039
39,91467	7578
39,92533	7154
39,93600	6770
39,94667	6412
39,95733	6078
39,96800	5768
39,97867	5486
39,98933	5221
40,00000	4982
40,01067	4758
40,02133	4552
40,03200	4349
40,04267	4166
40,05333	3996
40,06400	3824
40,07467	3675
40,08533	3533
40,09600	3404
40,10667	3278
40,11733	3146
40,12800	3038
40,13867	2926
40,14933	2823
40,16000	2729
40,17067	2640
40,18133	2547
40,19200	2452
40,20267	2367
40,21333	2282
40,22400	2206
40,23467	2132
40,24533	2055
40,25600	1984
40,26667	1923
40,27733	1842
40,28800	1785
40,29867	1725
40,30933	1658
40,32000	1611
40,33067	1556
40,34133	1498
40,35200	1455
40,36267	1414
40,37333	1358
40,38400	1312
40,39467	1269
40,40533	1231
40,41600	1194
40,42667	1157
40,43733	1114
40,44800	1077
40,45867	1043
40,46933	1011
40,48000	971
40,49067	933
40,50133	898
40,51200	877
40,52267	852
40,53333	824
40,54400	793
40,55467	762
40,56533	727
40,57600	700
40,58667	675
40,59733	654
40,60800	634
40,61867	607
40,62933	574
40,64000	554
40,65067	521
40,66133	506
40,67200	478
40,68267	455
40,69333	428
40,70400	403
40,71467	384
40,72533	359
40,73600	340
40,74667	320
40,75733	300
40,76800	271
40,77867	252
40,78933	232
40,80000	211
40,81067	188
40,82133	170
40,83200	156
40,84267	139
40,85333	109
40,86400	93
40,87467	72
40,88533	60
40,89600	40
40,90667	23
40,91733	12
40,92800	-7
40,93867	-19
40,94933	-31
40,96000	-45
40,97067	-57
40,98133	-74
40,99200	-86
41,00267	-96
41,01333	-105
41,02400	-119
41,03467	-128
41,04533	-124
41,05600	-135
41,06667	-145
41,07733	-160
41,08800	-166
41,09867	-177
41,10933	-185
41,12000	-194
41,13067	-197
41,14133	-203
41,15200	-215
41,16267	-212
41,17333	-215
41,18400	-228
41,19467	-242
41,20533	-245
41,21600	-251
41,22667	-259
41,23733	-262
41,24800	-267
41,25867	-277
41,26933	-281
41,28000	-289
41,29067	-286
41,30133	-289
41,31200	-301
41,32267	-302
41,33333	-302
41,34400	-305
41,35467	-305
41,36533	-310
41,37600	-308
41,38667	-304
41,39733	-308
41,40800	-303
41,41867	-296
41,42933	-299
41,44000	-305
41,45067	-304
41,46133	-300
41,47200	-290
41,48267	-289
41,49333	-288
41,50400	-287
41,51467	-286
41,52533	-285
41,53600	-282
41,54667	-272
41,55733	-265
41,56800	-255
41,57867	-251
41,58933	-254
41,60000	-244
41,61067	-242
41,62133	-224
41,63200	-217
41,64267	-203
41,65333	-202
41,66400	-192
41,67467	-185
41,68533	-174
41,69600	-163
41,70667	-171
41,71733	-157
41,72800	-152
41,73867	-145
41,74933	-137
41,76000	-126
41,77067	-119
41,78133	-111
41,79200	-108
41,80267	-96
41,81333	-93
41,82400	-87
41,83467	-77
41,84533	-75
41,85600	-65
41,86667	-57
41,87733	-53
41,88800	-46
41,89867	-37
41,90933	-36
41,92000	-25
41,93067	-19
41,94133	-13
41,95200	-6
41,96267	6
41,97333	4
41,98400	10
41,99467	12
42,00533	16
42,01600	21
42,02667	27
42,03733	40
42,04800	35
42,05867	45
42,06933	40
42,08000	50
42,09067	50
42,10133	56
42,11200	56
42,12267	54
42,13333	65
42,14400	79
42,15467	74
42,16533	74
42,17600	84
42,18667	86
42,19733	86
42,20800	88
42,21867	90
42,22933	95
42,24000	93
42,25067	97
42,26133	100
42,27200	99
42,28267	107
42,29333	102
42,30400	108
42,31467	113
42,32533	109
42,33600	106
42,34667	106
42,35733	115
42,36800	114
42,37867	118
42,38933	120
42,40000	115
42,41067	119
42,42133	117
42,43200	112
42,44267	117
42,45333	106
42,46400	104
42,47467	118
42,48533	115
42,49600	115
42,50667	112
42,51733	114
42,52800	122
42,53867	113
42,54933	117
42,56000	114
42,57067	114
42,58133	112
42,59200	117
42,60267	120
42,61333	122
42,62400	124
42,63467	123
42,64533	126
42,65600	117
42,66667	116
42,67733	118
42,68800	120
42,69867	122
42,70933	124
42,72000	115
42,73067	120
42,74133	114
42,75200	124
42,76267	122
42,77333	119
42,78400	118
42,79467	118
42,80533	118
42,81600	118
42,82667	117
42,83733	114
42,84800	121
42,85867	128
42,86933	119
42,88000	114
42,89067	113
42,90133	114
42,91200	121
42,92267	119
42,93333	118
42,94400	113
42,95467	109
42,96533	118
42,97600	118
42,98667	113
42,99733	114
43,00800	107
43,01867	114
43,02933	114
43,04000	113
43,05067	125
43,06133	119
43,07200	116
43,08267	121
43,09333	117
43,10400	112
43,11467	112
43,12533	107
43,13600	108
43,14667	117
43,15733	118
43,16800	120
43,17867	122
43,18933	123
43,20000	116
43,21067	117
43,22133	108
43,23200	111
43,24267	107
43,25333	113
43,26400	111
43,27467	105
43,28533	109
43,29600	108
43,30667	111
43,31733	110
43,32800	113
43,33867	115
43,34933	117
43,36000	107
43,37067	110
43,38133	109
43,39200	120
43,40267	118
43,41333	114
43,42400	114
43,43467	116
43,44533	116
43,45600	118
43,46667	124
43,47733	123
43,48800	123
43,49867	130
43,50933	123
43,52000	125
43,53067	128
43,54133	127
43,55200	123
43,56267	120
43,57333	122
43,58400	123
43,59467	119
43,60533	121
43,61600	115
43,62667	120
43,63733	123
43,64800	119
43,65867	122
43,66933	117
43,68000	116
43,69067	111
43,70133	115
43,71200	117
43,72267	117
43,73333	111
43,74400	114
43,75467	119
43,76533	121
43,77600	110
43,78667	107
43,79733	113
43,80800	117
43,81867	111
43,82933	107
43,84000	108
43,85067	103
43,86133	115
43,87200	102
43,88267	101
43,89333	102
43,90400	105
43,91467	99
43,92533	99
43,93600	99
43,94667	98
43,95733	98
43,96800	111
43,97867	105
43,98933	106
44,00000	103
44,01067	98
44,02133	106
44,03200	115
44,04267	104
44,05333	109
44,06400	100
44,07467	107
44,08533	109
44,09600	109
44,10667	108
44,11733	100
44,12800	101
44,13867	103
44,14933	99
44,16000	105
44,17067	107
44,18133	105
44,19200	105
44,20267	103
44,21333	104
44,22400	101
44,23467	103
44,24533	96
44,25600	101
44,26667	99
44,27733	103
44,28800	108
44,29867	110
44,30933	107
44,32000	112
44,33067	104
44,34133	102
44,35200	95
44,36267	99
44,37333	98
44,38400	95
44,39467	101
44,40533	101
44,41600	101
44,42667	106
44,43733	111
44,44800	112
44,45867	108
44,46933	97
44,48000	96
44,49067	96
44,50133	104
44,51200	108
44,52267	100
44,53333	105
44,54400	110
44,55467	105
44,56533	92
44,57600	85
44,58667	100
44,59733	95
44,60800	99
44,61867	105
44,62933	107
44,64000	106
44,65067	104
44,66133	104
44,67200	104
44,68267	102
44,69333	103
44,70400	99
44,71467	101
44,72533	102
44,73600	102
44,74667	101
44,75733	102
44,76800	102
44,77867	106
44,78933	103
44,80000	100
44,81067	97
44,82133	94
44,83200	100
44,84267	101
44,85333	102
44,86400	101
44,87467	106
44,88533	105
44,89600	99
44,90667	97
44,91733	96
44,92800	92
44,93867	97
44,94933	103
44,96000	107
44,97067	97
44,98133	103
44,99200	99
45,00267	104
45,01333	99
45,02400	97
45,03467	105
45,04533	103
45,05600	106
45,06667	103
45,07733	105
45,08800	108
45,09867	107
45,10933	103
45,12000	111
45,13067	108
45,14133	109
45,15200	104
45,16267	103
45,17333	107
45,18400	107
45,19467	105
45,20533	101
45,21600	103
45,22667	109
45,23733	97
45,24800	96
45,25867	102
45,26933	96
45,28000	102
45,29067	95
45,30133	94
45,31200	105
45,32267	103
45,33333	98
45,34400	101
45,35467	105
45,36533	101
45,37600	97
45,38667	101
45,39733	100
45,40800	96
45,41867	101
45,42933	96
45,44000	97
45,45067	93
45,46133	93
45,47200	93
45,48267	94
45,49333	98
45,50400	95
45,51467	93
45,52533	94
45,53600	94
45,54667	94
45,55733	100
45,56800	94
45,57867	103
45,58933	98
45,60000	95
45,61067	101
45,62133	104
45,63200	96
45,64267	91
45,65333	89
45,66400	96
45,67467	92
45,68533	98
45,69600	93
45,70667	98
45,71733	97
45,72800	94
45,73867	87
45,74933	92
45,76000	91
45,77067	102
45,78133	97
45,79200	98
45,80267	98
45,81333	104
45,82400	88
45,83467	86
45,84533	90
45,85600	94
45,86667	93
45,87733	91
45,88800	90
45,89867	87
45,90933	98
45,92000	90
45,93067	89
45,94133	88
45,95200	96
45,96267	99
45,97333	92
45,98400	93
45,99467	100
46,00533	101
46,01600	94
46,02667	96
46,03733	99
46,04800	97
46,05867	103
46,06933	102
46,08000	95
46,09067	94
46,10133	96
46,11200	101
46,12267	92
46,13333	90
46,14400	96
46,15467	98
46,16533	96
46,17600	94
46,18667	92
46,19733	94
46,20800	108
46,21867	96
46,22933	96
46,24000	97
46,25067	94
46,26133	92
46,27200	90
46,28267	85
46,29333	83
46,30400	90
46,31467	97
46,32533	102
46,33600	89
46,34667	87
46,35733	85
46,36800	93
46,37867	89
46,38933	91
46,40000	94
46,41067	95
46,42133	91
46,43200	96
46,44267	97
46,45333	98
46,46400	95
46,47467	91
46,48533	90
46,49600	92
46,50667	94
46,51733	91
46,52800	84
46,53867	84
46,54933	92
46,56000	82
46,57067	79
46,58133	92
46,59200	90
46,60267	89
46,61333	88
46,62400	88
46,63467	85
46,64533	87
46,65600	90
46,66667	97
46,67733	98
46,68800	94
46,69867	91
46,70933	85
46,72000	90
46,73067	94
46,74133	100
46,75200	90
46,76267	98
46,77333	89
46,78400	85
46,79467	82
46,80533	90
46,81600	97
46,82667	96
46,83733	91
46,84800	84
46,85867	82
46,86933	89
46,88000	94
46,89067	92
46,90133	88
46,91200	88
46,92267	86
46,93333	81
46,94400	85
46,95467	86
46,96533	94
46,97600	92
46,98667	88
46,99733	89
47,00800	90
47,01867	85
47,02933	88
47,04000	90
47,05067	88
47,06133	79
47,07200	78
47,08267	78
47,09333	78
47,10400	89
47,11467	89
47,12533	93
47,13600	93
47,14667	95
47,15733	93
47,16800	87
47,17867	85
47,18933	94
47,20000	88
47,21067	80
47,22133	79
47,23200	85
47,24267	81
47,25333	84
47,26400	93
47,27467	92
47,28533	91
47,29600	92
47,30667	86
47,31733	81
47,32800	87
47,33867	86
47,34933	80
47,36000	77
47,37067	74
47,38133	72
47,39200	83
47,40267	78
47,41333	68
47,42400	73
47,43467	74
47,44533	71
47,45600	76
47,46667	77
47,47733	78
47,48800	78
47,49867	74
47,50933	77
47,52000	78
47,53067	75
47,54133	72
47,55200	77
47,56267	77
47,57333	71
47,58400	72
47,59467	78
47,60533	79
47,61600	76
47,62667	75
47,63733	73
47,64800	78
47,65867	82
47,66933	79
47,68000	77
47,69067	78
47,70133	78
47,71200	82
47,72267	86
47,73333	86
47,74400	81
47,75467	74
47,76533	76
47,77600	81
47,78667	86
47,79733	80
47,80800	82
47,81867	81
47,82933	82
47,84000	82
47,85067	77
47,86133	74
47,87200	65
47,88267	79
47,89333	83
47,90400	76
47,91467	75
47,92533	76
47,93600	86
47,94667	72
47,95733	74
47,96800	67
47,97867	69
47,98933	70
48,00000	78
48,01067	69
48,02133	70
48,03200	69
48,04267	64
48,05333	68
48,06400	73
48,07467	75
48,08533	75
48,09600	75
48,10667	76
48,11733	80
48,12800	78
48,13867	70
48,14933	67
48,16000	71
48,17067	70
48,18133	73
48,19200	70
48,20267	68
48,21333	71
48,22400	76
48,23467	68
48,24533	69
48,25600	70
48,26667	66
48,27733	72
48,28800	68
48,29867	63
48,30933	72
48,32000	64
48,33067	69
48,34133	73
48,35200	75
48,36267	69
48,37333	68
48,38400	75
48,39467	75
48,40533	80
48,41600	76
48,42667	71
48,43733	64
48,44800	71
48,45867	66
48,46933	70
48,48000	69
48,49067	64
48,50133	64
48,51200	68
48,52267	68
48,53333	69
48,54400	65
48,55467	73
48,56533	79
48,57600	75
48,58667	70
48,59733	63
48,60800	68
48,61867	68
48,62933	71
48,64000	64
48,65067	59
48,66133	65
48,67200	70
48,68267	71
48,69333	70
48,70400	69
48,71467	62
48,72533	67
48,73600	66
48,74667	70
48,75733	70
48,76800	70
48,77867	71
48,78933	57
48,80000	59
48,81067	62
48,82133	62
48,83200	64
48,84267	63
48,85333	67
48,86400	67
48,87467	68
48,88533	63
48,89600	71
48,90667	67
48,91733	59
48,92800	60
48,93867	57
48,94933	61
48,96000	51
48,97067	61
48,98133	65
48,99200	57
49,00267	55
49,01333	55
49,02400	64
49,03467	57
49,04533	57
49,05600	56
49,06667	53
49,07733	64
49,08800	57
49,09867	56
49,10933	60
49,12000	48
49,13067	56
49,14133	59
49,15200	47
49,16267	49
49,17333	50
49,18400	58
49,19467	55
49,20533	55
49,21600	57
49,22667	59
49,23733	60
49,24800	62
49,25867	64
49,26933	61
49,28000	61
49,29067	57
49,30133	56
49,31200	55
49,32267	56
49,33333	53
49,34400	59
49,35467	54
49,36533	54
49,37600	52
49,38667	54
49,39733	48
49,40800	48
49,41867	58
49,42933	59
49,44000	53
49,45067	53
49,46133	47
49,47200	64
49,48267	49
49,49333	49
49,50400	50
49,51467	51
49,52533	47
49,53600	42
49,54667	53
49,55733	54
49,56800	43
49,57867	46
49,58933	48
49,60000	50
49,61067	56
49,62133	57
49,63200	59
49,64267	54
49,65333	49
49,66400	50
49,67467	48
49,68533	50
49,69600	61
49,70667	63
49,71733	56
49,72800	52
49,73867	55
49,74933	50
49,76000	52
49,77067	45
49,78133	45
49,79200	42
49,80267	46
49,81333	51
49,82400	54
49,83467	46
49,84533	44
49,85600	39
49,86667	39
49,87733	40
49,88800	41
49,89867	32
49,90933	43
49,92000	33
49,93067	37
49,94133	44
49,95200	46
49,96267	43
49,97333	40
49,98400	38
49,99467	35
50,00533	33


