[Header]
Application Name	LabSolutions
Version	5.73
Data File Name	C:\Users\Public\DADOS\Ricardo borges\RMBorges\26.02.25\AC CAFEICO.lcd
Output Date	26/02/2025
Output Time	19:29:37

[File Information]
Type	Data File
Generated	26/02/2025 18:39:09
Generated by	System Administrator
Modified	26/02/2025 19:29:36
Modified by	System Administrator

[Sample Information]
Operator Name	System Administrator
Acquired	26/02/2025 18:39:34
Sample Type	0:Unknown
Level	0
Sample Name	AC CAFEICO
Sample ID	AC CAFEICO
ISTD Amount1	1
ISTD Amount2	1
ISTD Amount3	1
ISTD Amount4	1
ISTD Amount5	1
ISTD Amount6	1
ISTD Amount7	1
ISTD Amount8	1
ISTD Amount9	1
ISTD Amount10	1
ISTD Amount11	1
ISTD Amount12	1
ISTD Amount13	1
ISTD Amount14	1
ISTD Amount15	1
ISTD Amount16	1
ISTD Amount17	1
ISTD Amount18	1
ISTD Amount19	1
ISTD Amount20	1
ISTD Amount21	1
ISTD Amount22	1
ISTD Amount23	1
ISTD Amount24	1
ISTD Amount25	1
ISTD Amount26	1
ISTD Amount27	1
ISTD Amount28	1
ISTD Amount29	1
ISTD Amount30	1
ISTD Amount31	1
ISTD Amount32	1
Sample Amount	1
Dilution Factor	1
Vial#	8
Injection Volume	10

[Original Files]
Data File	C:\Users\Public\DADOS\Ricardo borges\RMBorges\26.02.25\AC CAFEICO.lcd
Method File	C:\Users\Public\MÉTODOS\MÉTODOS HPLC AUTOMÁTICO\RICARDO BORGES\RMBorges\sciffee\experimental 1 - pool.lcm
Batch File	C:\Users\Public\DADOS\Ricardo borges\RMBorges\26.02.25\BATCH_RM_MIX POOL_26.02.2025.lcb
Report Format File	C:\LabSolutions\System\Default.lsr

[File Description]


[Configuration]
Instrument Name	HPLC analítico (automático)
Instrument #	1
Line #	1
# of Detectors	1
Detector ID	PDA
Detector Name	PDA
# of Channels	1

[Peak Table(PDA-Ch1)]
# of Peaks	19
Peak#	R.Time	I.Time	F.Time	Area	Height	A/H	Conc.	Mark	ID#	Name	k'	Plate #	Plate Ht.	Tailing	Resolution	Sep.Factor	Area Ratio	Height Ratio	Conc. %	Norm Conc.
1	1,666	1,493	1,835	128696	18935	6,797	0,000	   			0,000	1371	109,384	1,022	0,000	0,000	0	0	0,000	0,000
2	11,546	11,285	11,797	7247	637	11,383	0,000	   			5,929	22634	6,627	1,075	40,577	0,000	0	0	0,000	0,000
3	12,233	11,872	12,949	8880133	794910	11,171	0,000	   			6,342	25509	5,880	1,199	2,240	1,070	0	0	0,000	0,000
4	17,133	16,864	17,323	3940	310	12,714	0,000	   			9,282	39596	3,788	0,898	15,059	1,464	0	0	0,000	0,000
5	18,463	18,176	18,667	5470	470	11,634	0,000	   			10,081	57335	2,616	0,870	4,076	1,086	0	0	0,000	0,000
6	21,098	20,907	21,269	5729	609	9,410	0,000	   			11,662	100656	1,490	0,992	9,173	1,157	0	0	0,000	0,000
7	25,739	25,568	25,856	1264	127	9,979	0,000	   			14,447	151644	0,989	0,832	17,499	1,239	0	0	0,000	0,000
8	27,083	26,208	27,232	3101	38	80,753	0,000	   			15,254	13962	10,743	0,550	2,276	1,056	0	0	0,000	0,000
9	29,675	29,141	29,941	1888	86	22,063	0,000	   			16,809	86373	1,737	0,626	3,925	1,102	0	0	0,000	0,000
10	35,079	34,603	35,424	854283	113701	7,513	0,000	   			20,052	716347	0,209	0,000	18,972	1,193	0	0	0,000	0,000
11	35,494	35,424	35,563	111947	17260	6,486	0,000	 V 			20,302	264896	0,566	0,000	1,879	1,012	0	0	0,000	0,000
12	35,602	35,563	35,733	87247	11794	7,397	0,000	 V 			20,366	72491	2,069	0,000	0,268	1,003	0	0	0,000	0,000
13	35,859	35,733	35,989	98046	8038	12,197	0,000	 V 			20,521	82429	1,820	0,000	0,501	1,008	0	0	0,000	0,000
14	36,042	35,989	36,096	30014	4838	6,204	0,000	 V 			20,631	5076	29,551	0,000	0,145	1,005	0	0	0,000	0,000
15	36,343	36,096	36,469	107942	6132	17,603	0,000	 V 			20,811	26446	5,672	0,000	0,206	1,009	0	0	0,000	0,000
16	36,796	36,469	36,885	75568	3077	24,557	0,000	 V 			21,083	108	1385,606	0,000	0,060	1,013	0	0	0,000	0,000
17	37,044	36,885	37,152	33886	2887	11,739	0,000	 V 			21,232	155941	0,962	0,000	0,034	1,007	0	0	0,000	0,000
18	37,235	37,152	37,376	10404	1237	8,408	0,000	 V 			21,346	31265	4,798	0,000	0,313	1,005	0	0	0,000	0,000
19	38,918	38,667	39,989	1072210	36666	29,243	0,000	   			22,357	341595	0,439	3,021	3,036	1,047	0	0	0,000	0,000

[Compound Results(PDA)]
# of IDs	0

[PDA Multi Chromatogram(Ch1)]
# of Points	      4689
Interval(msec)	640
Start Time(min)	0
End Time(min)	50,0053
Intensity Units	mAU
Intensity Multiplier	1
Type	MultiChrom
Wavelength(nm)	254
Bandwidth(nm)	4
R.Time (min)	Intensity
0,00000	0
0,01067	0
0,02133	0
0,03200	0
0,04267	0
0,05333	0
0,06400	0
0,07467	0
0,08533	0
0,09600	0
0,10667	0
0,11733	5
0,12800	7
0,13867	3
0,14933	-5
0,16000	-4
0,17067	-2
0,18133	-2
0,19200	-0
0,20267	3
0,21333	7
0,22400	4
0,23467	4
0,24533	-4
0,25600	-3
0,26667	-3
0,27733	1
0,28800	9
0,29867	11
0,30933	13
0,32000	6
0,33067	5
0,34133	10
0,35200	2
0,36267	8
0,37333	15
0,38400	13
0,39467	4
0,40533	9
0,41600	4
0,42667	12
0,43733	10
0,44800	16
0,45867	16
0,46933	9
0,48000	7
0,49067	14
0,50133	15
0,51200	13
0,52267	7
0,53333	9
0,54400	8
0,55467	10
0,56533	3
0,57600	8
0,58667	9
0,59733	15
0,60800	7
0,61867	7
0,62933	8
0,64000	2
0,65067	8
0,66133	11
0,67200	9
0,68267	9
0,69333	7
0,70400	5
0,71467	3
0,72533	5
0,73600	2
0,74667	-0
0,75733	4
0,76800	2
0,77867	0
0,78933	7
0,80000	1
0,81067	11
0,82133	8
0,83200	5
0,84267	4
0,85333	7
0,86400	4
0,87467	7
0,88533	8
0,89600	3
0,90667	5
0,91733	-2
0,92800	2
0,93867	-6
0,94933	-2
0,96000	3
0,97067	-3
0,98133	-1
0,99200	2
1,00267	10
1,01333	3
1,02400	6
1,03467	-0
1,04533	-5
1,05600	-8
1,06667	-14
1,07733	-7
1,08800	-3
1,09867	-8
1,10933	-7
1,12000	-9
1,13067	-15
1,14133	-14
1,15200	-15
1,16267	-12
1,17333	-4
1,18400	-5
1,19467	-11
1,20533	-5
1,21600	-11
1,22667	-10
1,23733	-8
1,24800	-7
1,25867	-9
1,26933	5
1,28000	3
1,29067	-8
1,30133	-2
1,31200	0
1,32267	-2
1,33333	-3
1,34400	1
1,35467	5
1,36533	-6
1,37600	-1
1,38667	-4
1,39733	-4
1,40800	-4
1,41867	-2
1,42933	-3
1,44000	0
1,45067	6
1,46133	4
1,47200	-3
1,48267	6
1,49333	4
1,50400	14
1,51467	15
1,52533	17
1,53600	22
1,54667	60
1,55733	207
1,56800	759
1,57867	2051
1,58933	3817
1,60000	5200
1,61067	5568
1,62133	5033
1,63200	4655
1,64267	7805
1,65333	12982
1,66400	15050
1,67467	14208
1,68533	12340
1,69600	10466
1,70667	8651
1,71733	6599
1,72800	4277
1,73867	1914
1,74933	-263
1,76000	-2105
1,77067	-3514
1,78133	-4518
1,79200	-5260
1,80267	-5958
1,81333	-6693
1,82400	-7336
1,83467	-7672
1,84533	-7601
1,85600	-7091
1,86667	-6214
1,87733	-5120
1,88800	-3971
1,89867	-2906
1,90933	-2030
1,92000	-1353
1,93067	-870
1,94133	-536
1,95200	-323
1,96267	-194
1,97333	-115
1,98400	-59
1,99467	-20
2,00533	-3
2,01600	11
2,02667	14
2,03733	14
2,04800	19
2,05867	27
2,06933	25
2,08000	24
2,09067	27
2,10133	25
2,11200	27
2,12267	32
2,13333	27
2,14400	34
2,15467	29
2,16533	25
2,17600	19
2,18667	23
2,19733	24
2,20800	26
2,21867	23
2,22933	23
2,24000	25
2,25067	31
2,26133	32
2,27200	28
2,28267	32
2,29333	34
2,30400	32
2,31467	34
2,32533	31
2,33600	27
2,34667	34
2,35733	26
2,36800	30
2,37867	23
2,38933	26
2,40000	32
2,41067	27
2,42133	31
2,43200	29
2,44267	25
2,45333	30
2,46400	21
2,47467	20
2,48533	25
2,49600	21
2,50667	25
2,51733	21
2,52800	24
2,53867	21
2,54933	26
2,56000	25
2,57067	20
2,58133	26
2,59200	26
2,60267	26
2,61333	26
2,62400	16
2,63467	8
2,64533	-15
2,65600	-52
2,66667	-121
2,67733	-197
2,68800	-300
2,69867	-390
2,70933	-460
2,72000	-505
2,73067	-537
2,74133	-532
2,75200	-506
2,76267	-462
2,77333	-400
2,78400	-335
2,79467	-258
2,80533	-197
2,81600	-142
2,82667	-97
2,83733	-61
2,84800	-28
2,85867	-11
2,86933	-3
2,88000	6
2,89067	13
2,90133	25
2,91200	26
2,92267	31
2,93333	20
2,94400	25
2,95467	32
2,96533	31
2,97600	39
2,98667	40
2,99733	33
3,00800	36
3,01867	39
3,02933	48
3,04000	51
3,05067	49
3,06133	46
3,07200	57
3,08267	52
3,09333	55
3,10400	56
3,11467	56
3,12533	62
3,13600	57
3,14667	53
3,15733	57
3,16800	54
3,17867	60
3,18933	53
3,20000	42
3,21067	49
3,22133	55
3,23200	49
3,24267	51
3,25333	51
3,26400	54
3,27467	45
3,28533	45
3,29600	45
3,30667	48
3,31733	50
3,32800	48
3,33867	45
3,34933	41
3,36000	43
3,37067	46
3,38133	39
3,39200	41
3,40267	41
3,41333	41
3,42400	39
3,43467	40
3,44533	50
3,45600	65
3,46667	83
3,47733	100
3,48800	110
3,49867	107
3,50933	92
3,52000	68
3,53067	43
3,54133	25
3,55200	7
3,56267	3
3,57333	-2
3,58400	-11
3,59467	-9
3,60533	-8
3,61600	9
3,62667	12
3,63733	18
3,64800	17
3,65867	19
3,66933	30
3,68000	39
3,69067	46
3,70133	41
3,71200	60
3,72267	56
3,73333	60
3,74400	64
3,75467	64
3,76533	63
3,77600	69
3,78667	70
3,79733	68
3,80800	67
3,81867	75
3,82933	82
3,84000	77
3,85067	77
3,86133	85
3,87200	85
3,88267	82
3,89333	87
3,90400	85
3,91467	86
3,92533	85
3,93600	88
3,94667	90
3,95733	85
3,96800	84
3,97867	83
3,98933	98
4,00000	92
4,01067	84
4,02133	82
4,03200	77
4,04267	79
4,05333	81
4,06400	79
4,07467	81
4,08533	77
4,09600	76
4,10667	76
4,11733	71
4,12800	77
4,13867	81
4,14933	79
4,16000	84
4,17067	84
4,18133	77
4,19200	73
4,20267	80
4,21333	86
4,22400	81
4,23467	86
4,24533	81
4,25600	86
4,26667	89
4,27733	84
4,28800	78
4,29867	79
4,30933	86
4,32000	87
4,33067	89
4,34133	89
4,35200	86
4,36267	87
4,37333	86
4,38400	84
4,39467	84
4,40533	80
4,41600	77
4,42667	81
4,43733	88
4,44800	85
4,45867	80
4,46933	84
4,48000	85
4,49067	82
4,50133	87
4,51200	82
4,52267	91
4,53333	97
4,54400	94
4,55467	96
4,56533	86
4,57600	89
4,58667	98
4,59733	103
4,60800	106
4,61867	106
4,62933	107
4,64000	105
4,65067	104
4,66133	105
4,67200	111
4,68267	116
4,69333	120
4,70400	119
4,71467	119
4,72533	123
4,73600	119
4,74667	130
4,75733	137
4,76800	129
4,77867	135
4,78933	137
4,80000	144
4,81067	147
4,82133	156
4,83200	153
4,84267	150
4,85333	151
4,86400	153
4,87467	156
4,88533	159
4,89600	160
4,90667	168
4,91733	169
4,92800	168
4,93867	171
4,94933	177
4,96000	180
4,97067	178
4,98133	177
4,99200	189
5,00267	188
5,01333	203
5,02400	198
5,03467	196
5,04533	193
5,05600	200
5,06667	204
5,07733	202
5,08800	211
5,09867	205
5,10933	206
5,12000	210
5,13067	218
5,14133	222
5,15200	232
5,16267	236
5,17333	230
5,18400	237
5,19467	242
5,20533	247
5,21600	258
5,22667	260
5,23733	258
5,24800	263
5,25867	258
5,26933	268
5,28000	272
5,29067	278
5,30133	274
5,31200	275
5,32267	279
5,33333	281
5,34400	291
5,35467	287
5,36533	289
5,37600	298
5,38667	293
5,39733	294
5,40800	297
5,41867	300
5,42933	299
5,44000	308
5,45067	315
5,46133	318
5,47200	317
5,48267	317
5,49333	319
5,50400	328
5,51467	334
5,52533	337
5,53600	331
5,54667	330
5,55733	336
5,56800	343
5,57867	344
5,58933	346
5,60000	348
5,61067	350
5,62133	354
5,63200	364
5,64267	363
5,65333	359
5,66400	370
5,67467	379
5,68533	384
5,69600	377
5,70667	379
5,71733	383
5,72800	385
5,73867	385
5,74933	385
5,76000	396
5,77067	399
5,78133	402
5,79200	415
5,80267	411
5,81333	409
5,82400	422
5,83467	424
5,84533	422
5,85600	425
5,86667	425
5,87733	425
5,88800	428
5,89867	436
5,90933	434
5,92000	438
5,93067	445
5,94133	452
5,95200	453
5,96267	461
5,97333	454
5,98400	457
5,99467	459
6,00533	465
6,01600	467
6,02667	472
6,03733	474
6,04800	470
6,05867	473
6,06933	481
6,08000	489
6,09067	488
6,10133	486
6,11200	482
6,12267	492
6,13333	495
6,14400	489
6,15467	504
6,16533	503
6,17600	503
6,18667	501
6,19733	506
6,20800	506
6,21867	509
6,22933	521
6,24000	519
6,25067	524
6,26133	524
6,27200	527
6,28267	530
6,29333	530
6,30400	534
6,31467	543
6,32533	544
6,33600	541
6,34667	546
6,35733	542
6,36800	556
6,37867	558
6,38933	560
6,40000	569
6,41067	574
6,42133	579
6,43200	591
6,44267	586
6,45333	584
6,46400	593
6,47467	594
6,48533	595
6,49600	591
6,50667	597
6,51733	602
6,52800	597
6,53867	607
6,54933	596
6,56000	602
6,57067	597
6,58133	601
6,59200	602
6,60267	603
6,61333	610
6,62400	613
6,63467	617
6,64533	621
6,65600	626
6,66667	618
6,67733	626
6,68800	621
6,69867	619
6,70933	617
6,72000	629
6,73067	636
6,74133	634
6,75200	630
6,76267	625
6,77333	631
6,78400	640
6,79467	646
6,80533	640
6,81600	645
6,82667	658
6,83733	654
6,84800	648
6,85867	648
6,86933	651
6,88000	650
6,89067	658
6,90133	659
6,91200	665
6,92267	663
6,93333	665
6,94400	673
6,95467	680
6,96533	679
6,97600	677
6,98667	678
6,99733	691
7,00800	695
7,01867	678
7,02933	681
7,04000	695
7,05067	702
7,06133	706
7,07200	703
7,08267	710
7,09333	714
7,10400	720
7,11467	707
7,12533	715
7,13600	714
7,14667	724
7,15733	719
7,16800	719
7,17867	724
7,18933	724
7,20000	730
7,21067	739
7,22133	739
7,23200	738
7,24267	743
7,25333	744
7,26400	750
7,27467	757
7,28533	754
7,29600	763
7,30667	759
7,31733	759
7,32800	764
7,33867	765
7,34933	770
7,36000	778
7,37067	775
7,38133	785
7,39200	783
7,40267	783
7,41333	795
7,42400	792
7,43467	794
7,44533	785
7,45600	797
7,46667	801
7,47733	806
7,48800	815
7,49867	806
7,50933	811
7,52000	821
7,53067	817
7,54133	820
7,55200	821
7,56267	822
7,57333	827
7,58400	826
7,59467	830
7,60533	828
7,61600	840
7,62667	843
7,63733	849
7,64800	849
7,65867	850
7,66933	856
7,68000	856
7,69067	858
7,70133	868
7,71200	873
7,72267	884
7,73333	888
7,74400	894
7,75467	899
7,76533	908
7,77600	911
7,78667	913
7,79733	916
7,80800	924
7,81867	927
7,82933	923
7,84000	926
7,85067	942
7,86133	944
7,87200	949
7,88267	947
7,89333	951
7,90400	950
7,91467	951
7,92533	963
7,93600	972
7,94667	965
7,95733	964
7,96800	976
7,97867	977
7,98933	979
8,00000	976
8,01067	983
8,02133	977
8,03200	978
8,04267	982
8,05333	989
8,06400	991
8,07467	990
8,08533	992
8,09600	989
8,10667	986
8,11733	988
8,12800	994
8,13867	997
8,14933	992
8,16000	991
8,17067	994
8,18133	996
8,19200	1000
8,20267	998
8,21333	997
8,22400	1006
8,23467	1008
8,24533	1001
8,25600	1008
8,26667	1004
8,27733	1006
8,28800	1012
8,29867	1012
8,30933	1021
8,32000	1027
8,33067	1029
8,34133	1036
8,35200	1040
8,36267	1038
8,37333	1040
8,38400	1046
8,39467	1048
8,40533	1052
8,41600	1051
8,42667	1052
8,43733	1055
8,44800	1055
8,45867	1060
8,46933	1064
8,48000	1063
8,49067	1066
8,50133	1071
8,51200	1069
8,52267	1072
8,53333	1081
8,54400	1084
8,55467	1092
8,56533	1096
8,57600	1086
8,58667	1086
8,59733	1097
8,60800	1106
8,61867	1102
8,62933	1104
8,64000	1110
8,65067	1119
8,66133	1121
8,67200	1117
8,68267	1119
8,69333	1118
8,70400	1128
8,71467	1130
8,72533	1131
8,73600	1136
8,74667	1139
8,75733	1143
8,76800	1148
8,77867	1147
8,78933	1151
8,80000	1154
8,81067	1162
8,82133	1160
8,83200	1155
8,84267	1164
8,85333	1173
8,86400	1174
8,87467	1177
8,88533	1180
8,89600	1188
8,90667	1201
8,91733	1196
8,92800	1199
8,93867	1204
8,94933	1205
8,96000	1209
8,97067	1214
8,98133	1214
8,99200	1227
9,00267	1221
9,01333	1222
9,02400	1231
9,03467	1227
9,04533	1225
9,05600	1236
9,06667	1241
9,07733	1243
9,08800	1240
9,09867	1245
9,10933	1248
9,12000	1249
9,13067	1245
9,14133	1252
9,15200	1256
9,16267	1263
9,17333	1259
9,18400	1269
9,19467	1274
9,20533	1285
9,21600	1278
9,22667	1277
9,23733	1277
9,24800	1277
9,25867	1286
9,26933	1291
9,28000	1299
9,29067	1301
9,30133	1302
9,31200	1299
9,32267	1303
9,33333	1305
9,34400	1317
9,35467	1327
9,36533	1322
9,37600	1331
9,38667	1329
9,39733	1330
9,40800	1330
9,41867	1336
9,42933	1336
9,44000	1333
9,45067	1337
9,46133	1346
9,47200	1345
9,48267	1348
9,49333	1350
9,50400	1351
9,51467	1350
9,52533	1359
9,53600	1367
9,54667	1363
9,55733	1375
9,56800	1375
9,57867	1376
9,58933	1377
9,60000	1376
9,61067	1377
9,62133	1387
9,63200	1395
9,64267	1390
9,65333	1399
9,66400	1404
9,67467	1405
9,68533	1409
9,69600	1406
9,70667	1410
9,71733	1414
9,72800	1416
9,73867	1421
9,74933	1418
9,76000	1421
9,77067	1424
9,78133	1430
9,79200	1435
9,80267	1438
9,81333	1441
9,82400	1453
9,83467	1455
9,84533	1454
9,85600	1462
9,86667	1454
9,87733	1448
9,88800	1456
9,89867	1463
9,90933	1466
9,92000	1476
9,93067	1471
9,94133	1471
9,95200	1473
9,96267	1474
9,97333	1475
9,98400	1481
9,99467	1484
10,00533	1490
10,01600	1496
10,02667	1495
10,03733	1501
10,04800	1503
10,05867	1504
10,06933	1505
10,08000	1510
10,09067	1518
10,10133	1519
10,11200	1517
10,12267	1524
10,13333	1532
10,14400	1534
10,15467	1535
10,16533	1538
10,17600	1541
10,18667	1545
10,19733	1556
10,20800	1555
10,21867	1561
10,22933	1558
10,24000	1571
10,25067	1572
10,26133	1580
10,27200	1587
10,28267	1595
10,29333	1591
10,30400	1600
10,31467	1603
10,32533	1606
10,33600	1614
10,34667	1607
10,35733	1613
10,36800	1616
10,37867	1616
10,38933	1621
10,40000	1630
10,41067	1627
10,42133	1632
10,43200	1633
10,44267	1639
10,45333	1634
10,46400	1639
10,47467	1645
10,48533	1650
10,49600	1658
10,50667	1666
10,51733	1670
10,52800	1669
10,53867	1674
10,54933	1679
10,56000	1688
10,57067	1692
10,58133	1697
10,59200	1693
10,60267	1690
10,61333	1700
10,62400	1706
10,63467	1710
10,64533	1704
10,65600	1701
10,66667	1704
10,67733	1701
10,68800	1709
10,69867	1708
10,70933	1719
10,72000	1730
10,73067	1720
10,74133	1722
10,75200	1728
10,76267	1732
10,77333	1737
10,78400	1731
10,79467	1748
10,80533	1748
10,81600	1753
10,82667	1752
10,83733	1753
10,84800	1758
10,85867	1765
10,86933	1763
10,88000	1768
10,89067	1778
10,90133	1777
10,91200	1779
10,92267	1785
10,93333	1788
10,94400	1795
10,95467	1799
10,96533	1801
10,97600	1800
10,98667	1809
10,99733	1809
11,00800	1813
11,01867	1813
11,02933	1820
11,04000	1826
11,05067	1821
11,06133	1829
11,07200	1835
11,08267	1834
11,09333	1837
11,10400	1843
11,11467	1848
11,12533	1853
11,13600	1851
11,14667	1852
11,15733	1854
11,16800	1853
11,17867	1856
11,18933	1865
11,20000	1866
11,21067	1873
11,22133	1875
11,23200	1880
11,24267	1883
11,25333	1884
11,26400	1888
11,27467	1893
11,28533	1899
11,29600	1907
11,30667	1910
11,31733	1921
11,32800	1922
11,33867	1931
11,34933	1936
11,36000	1945
11,37067	1958
11,38133	1980
11,39200	2009
11,40267	2036
11,41333	2067
11,42400	2110
11,43467	2153
11,44533	2208
11,45600	2268
11,46667	2334
11,47733	2396
11,48800	2454
11,49867	2510
11,50933	2550
11,52000	2590
11,53067	2617
11,54133	2628
11,55200	2627
11,56267	2614
11,57333	2596
11,58400	2563
11,59467	2513
11,60533	2466
11,61600	2419
11,62667	2368
11,63733	2315
11,64800	2273
11,65867	2233
11,66933	2201
11,68000	2176
11,69067	2148
11,70133	2129
11,71200	2119
11,72267	2109
11,73333	2092
11,74400	2095
11,75467	2088
11,76533	2083
11,77600	2086
11,78667	2076
11,79733	2079
11,80800	2081
11,81867	2086
11,82933	2091
11,84000	2094
11,85067	2098
11,86133	2104
11,87200	2105
11,88267	2114
11,89333	2122
11,90400	2121
11,91467	2146
11,92533	2164
11,93600	2185
11,94667	2220
11,95733	2280
11,96800	2377
11,97867	2533
11,98933	2810
12,00000	3268
12,01067	4022
12,02133	5270
12,03200	7333
12,04267	10639
12,05333	15853
12,06400	23887
12,07467	35942
12,08533	53541
12,09600	78280
12,10667	112028
12,11733	156036
12,12800	211470
12,13867	277713
12,14933	353515
12,16000	435224
12,17067	518763
12,18133	598468
12,19200	669352
12,20267	726822
12,21333	768101
12,22400	791542
12,23467	797214
12,24533	786309
12,25600	760787
12,26667	723060
12,27733	676044
12,28800	622151
12,29867	564250
12,30933	504314
12,32000	444719
12,33067	386879
12,34133	332444
12,35200	282078
12,36267	236668
12,37333	196345
12,38400	161353
12,39467	131368
12,40533	106170
12,41600	85250
12,42667	68141
12,43733	54326
12,44800	43235
12,45867	34428
12,46933	27457
12,48000	21987
12,49067	17692
12,50133	14320
12,51200	11696
12,52267	9663
12,53333	8079
12,54400	6851
12,55467	5915
12,56533	5204
12,57600	4652
12,58667	4234
12,59733	3920
12,60800	3676
12,61867	3498
12,62933	3365
12,64000	3250
12,65067	3169
12,66133	3117
12,67200	3071
12,68267	3024
12,69333	2984
12,70400	2966
12,71467	2937
12,72533	2914
12,73600	2893
12,74667	2885
12,75733	2872
12,76800	2856
12,77867	2843
12,78933	2819
12,80000	2808
12,81067	2804
12,82133	2789
12,83200	2781
12,84267	2771
12,85333	2763
12,86400	2758
12,87467	2746
12,88533	2727
12,89600	2720
12,90667	2730
12,91733	2720
12,92800	2716
12,93867	2713
12,94933	2697
12,96000	2701
12,97067	2702
12,98133	2698
12,99200	2704
13,00267	2700
13,01333	2687
13,02400	2687
13,03467	2681
13,04533	2680
13,05600	2676
13,06667	2668
13,07733	2670
13,08800	2674
13,09867	2673
13,10933	2676
13,12000	2666
13,13067	2670
13,14133	2668
13,15200	2671
13,16267	2668
13,17333	2673
13,18400	2678
13,19467	2671
13,20533	2676
13,21600	2679
13,22667	2684
13,23733	2680
13,24800	2679
13,25867	2683
13,26933	2687
13,28000	2687
13,29067	2681
13,30133	2680
13,31200	2683
13,32267	2691
13,33333	2694
13,34400	2692
13,35467	2697
13,36533	2701
13,37600	2700
13,38667	2701
13,39733	2716
13,40800	2710
13,41867	2716
13,42933	2709
13,44000	2713
13,45067	2716
13,46133	2711
13,47200	2717
13,48267	2727
13,49333	2731
13,50400	2733
13,51467	2731
13,52533	2727
13,53600	2729
13,54667	2742
13,55733	2743
13,56800	2737
13,57867	2734
13,58933	2738
13,60000	2746
13,61067	2754
13,62133	2756
13,63200	2758
13,64267	2749
13,65333	2763
13,66400	2765
13,67467	2763
13,68533	2768
13,69600	2766
13,70667	2772
13,71733	2771
13,72800	2776
13,73867	2785
13,74933	2791
13,76000	2799
13,77067	2800
13,78133	2800
13,79200	2814
13,80267	2815
13,81333	2818
13,82400	2829
13,83467	2838
13,84533	2840
13,85600	2844
13,86667	2843
13,87733	2847
13,88800	2847
13,89867	2861
13,90933	2863
13,92000	2870
13,93067	2879
13,94133	2887
13,95200	2886
13,96267	2894
13,97333	2899
13,98400	2902
13,99467	2902
14,00533	2905
14,01600	2901
14,02667	2901
14,03733	2902
14,04800	2917
14,05867	2917
14,06933	2930
14,08000	2922
14,09067	2921
14,10133	2920
14,11200	2924
14,12267	2925
14,13333	2931
14,14400	2930
14,15467	2927
14,16533	2944
14,17600	2951
14,18667	2949
14,19733	2953
14,20800	2959
14,21867	2965
14,22933	2972
14,24000	2970
14,25067	2980
14,26133	2984
14,27200	2982
14,28267	2984
14,29333	2983
14,30400	2987
14,31467	2985
14,32533	2993
14,33600	2997
14,34667	3008
14,35733	3008
14,36800	3015
14,37867	3014
14,38933	3016
14,40000	3027
14,41067	3033
14,42133	3036
14,43200	3043
14,44267	3051
14,45333	3048
14,46400	3054
14,47467	3061
14,48533	3063
14,49600	3073
14,50667	3078
14,51733	3080
14,52800	3084
14,53867	3083
14,54933	3085
14,56000	3088
14,57067	3104
14,58133	3106
14,59200	3107
14,60267	3121
14,61333	3117
14,62400	3129
14,63467	3134
14,64533	3138
14,65600	3141
14,66667	3150
14,67733	3157
14,68800	3161
14,69867	3170
14,70933	3182
14,72000	3182
14,73067	3192
14,74133	3197
14,75200	3206
14,76267	3214
14,77333	3218
14,78400	3229
14,79467	3234
14,80533	3247
14,81600	3249
14,82667	3250
14,83733	3260
14,84800	3266
14,85867	3258
14,86933	3260
14,88000	3264
14,89067	3279
14,90133	3279
14,91200	3279
14,92267	3282
14,93333	3286
14,94400	3292
14,95467	3298
14,96533	3302
14,97600	3303
14,98667	3312
14,99733	3310
15,00800	3313
15,01867	3313
15,02933	3319
15,04000	3320
15,05067	3325
15,06133	3327
15,07200	3333
15,08267	3338
15,09333	3350
15,10400	3352
15,11467	3340
15,12533	3355
15,13600	3367
15,14667	3375
15,15733	3367
15,16800	3368
15,17867	3370
15,18933	3376
15,20000	3378
15,21067	3380
15,22133	3392
15,23200	3389
15,24267	3402
15,25333	3403
15,26400	3408
15,27467	3414
15,28533	3415
15,29600	3415
15,30667	3428
15,31733	3434
15,32800	3437
15,33867	3431
15,34933	3439
15,36000	3450
15,37067	3452
15,38133	3460
15,39200	3458
15,40267	3467
15,41333	3470
15,42400	3473
15,43467	3486
15,44533	3493
15,45600	3493
15,46667	3497
15,47733	3506
15,48800	3517
15,49867	3518
15,50933	3518
15,52000	3528
15,53067	3533
15,54133	3532
15,55200	3539
15,56267	3546
15,57333	3551
15,58400	3560
15,59467	3554
15,60533	3557
15,61600	3563
15,62667	3571
15,63733	3579
15,64800	3588
15,65867	3591
15,66933	3590
15,68000	3593
15,69067	3593
15,70133	3598
15,71200	3602
15,72267	3605
15,73333	3614
15,74400	3620
15,75467	3616
15,76533	3623
15,77600	3625
15,78667	3631
15,79733	3638
15,80800	3639
15,81867	3641
15,82933	3641
15,84000	3646
15,85067	3651
15,86133	3662
15,87200	3663
15,88267	3657
15,89333	3659
15,90400	3679
15,91467	3688
15,92533	3686
15,93600	3687
15,94667	3688
15,95733	3699
15,96800	3701
15,97867	3705
15,98933	3702
16,00000	3708
16,01067	3718
16,02133	3722
16,03200	3732
16,04267	3744
16,05333	3743
16,06400	3742
16,07467	3749
16,08533	3756
16,09600	3764
16,10667	3775
16,11733	3779
16,12800	3778
16,13867	3782
16,14933	3790
16,16000	3788
16,17067	3794
16,18133	3796
16,19200	3795
16,20267	3801
16,21333	3805
16,22400	3808
16,23467	3815
16,24533	3817
16,25600	3824
16,26667	3830
16,27733	3831
16,28800	3837
16,29867	3837
16,30933	3834
16,32000	3837
16,33067	3838
16,34133	3850
16,35200	3853
16,36267	3855
16,37333	3859
16,38400	3867
16,39467	3867
16,40533	3880
16,41600	3885
16,42667	3887
16,43733	3893
16,44800	3900
16,45867	3901
16,46933	3896
16,48000	3903
16,49067	3915
16,50133	3918
16,51200	3923
16,52267	3929
16,53333	3934
16,54400	3940
16,55467	3944
16,56533	3948
16,57600	3947
16,58667	3961
16,59733	3971
16,60800	3970
16,61867	3970
16,62933	3973
16,64000	3973
16,65067	3985
16,66133	3987
16,67200	3989
16,68267	3997
16,69333	4001
16,70400	4006
16,71467	4011
16,72533	4015
16,73600	4016
16,74667	4016
16,75733	4020
16,76800	4023
16,77867	4022
16,78933	4035
16,80000	4038
16,81067	4044
16,82133	4052
16,83200	4056
16,84267	4057
16,85333	4067
16,86400	4061
16,87467	4074
16,88533	4081
16,89600	4087
16,90667	4093
16,91733	4102
16,92800	4112
16,93867	4122
16,94933	4141
16,96000	4160
16,97067	4177
16,98133	4206
16,99200	4227
17,00267	4256
17,01333	4284
17,02400	4316
17,03467	4347
17,04533	4374
17,05600	4397
17,06667	4425
17,07733	4441
17,08800	4459
17,09867	4467
17,10933	4486
17,12000	4493
17,13067	4498
17,14133	4496
17,15200	4487
17,16267	4474
17,17333	4459
17,18400	4445
17,19467	4421
17,20533	4400
17,21600	4387
17,22667	4366
17,23733	4341
17,24800	4327
17,25867	4315
17,26933	4297
17,28000	4294
17,29067	4283
17,30133	4287
17,31200	4278
17,32267	4278
17,33333	4280
17,34400	4281
17,35467	4292
17,36533	4293
17,37600	4299
17,38667	4294
17,39733	4295
17,40800	4300
17,41867	4307
17,42933	4306
17,44000	4320
17,45067	4328
17,46133	4330
17,47200	4336
17,48267	4344
17,49333	4343
17,50400	4341
17,51467	4340
17,52533	4350
17,53600	4360
17,54667	4352
17,55733	4356
17,56800	4358
17,57867	4367
17,58933	4371
17,60000	4379
17,61067	4376
17,62133	4385
17,63200	4384
17,64267	4384
17,65333	4393
17,66400	4395
17,67467	4401
17,68533	4400
17,69600	4409
17,70667	4409
17,71733	4413
17,72800	4416
17,73867	4418
17,74933	4422
17,76000	4427
17,77067	4438
17,78133	4438
17,79200	4442
17,80267	4439
17,81333	4441
17,82400	4441
17,83467	4443
17,84533	4446
17,85600	4455
17,86667	4462
17,87733	4463
17,88800	4467
17,89867	4476
17,90933	4492
17,92000	4487
17,93067	4493
17,94133	4501
17,95200	4508
17,96267	4508
17,97333	4518
17,98400	4521
17,99467	4528
18,00533	4541
18,01600	4547
18,02667	4548
18,03733	4549
18,04800	4564
18,05867	4569
18,06933	4577
18,08000	4587
18,09067	4585
18,10133	4589
18,11200	4595
18,12267	4597
18,13333	4596
18,14400	4597
18,15467	4603
18,16533	4616
18,17600	4620
18,18667	4628
18,19733	4643
18,20800	4652
18,21867	4665
18,22933	4678
18,24000	4690
18,25067	4702
18,26133	4714
18,27200	4730
18,28267	4756
18,29333	4770
18,30400	4783
18,31467	4802
18,32533	4827
18,33600	4844
18,34667	4872
18,35733	4906
18,36800	4945
18,37867	4970
18,38933	5014
18,40000	5054
18,41067	5101
18,42133	5140
18,43200	5171
18,44267	5205
18,45333	5223
18,46400	5228
18,47467	5221
18,48533	5202
18,49600	5173
18,50667	5137
18,51733	5104
18,52800	5064
18,53867	5032
18,54933	5000
18,56000	4965
18,57067	4940
18,58133	4921
18,59200	4905
18,60267	4890
18,61333	4882
18,62400	4872
18,63467	4867
18,64533	4869
18,65600	4862
18,66667	4856
18,67733	4866
18,68800	4863
18,69867	4868
18,70933	4867
18,72000	4868
18,73067	4878
18,74133	4885
18,75200	4884
18,76267	4881
18,77333	4881
18,78400	4883
18,79467	4876
18,80533	4885
18,81600	4889
18,82667	4899
18,83733	4895
18,84800	4901
18,85867	4906
18,86933	4908
18,88000	4913
18,89067	4920
18,90133	4927
18,91200	4935
18,92267	4933
18,93333	4941
18,94400	4946
18,95467	4947
18,96533	4957
18,97600	4959
18,98667	4968
18,99733	4979
19,00800	4977
19,01867	4976
19,02933	4977
19,04000	4986
19,05067	4987
19,06133	4997
19,07200	5002
19,08267	5001
19,09333	5012
19,10400	5018
19,11467	5020
19,12533	5024
19,13600	5032
19,14667	5034
19,15733	5044
19,16800	5051
19,17867	5053
19,18933	5053
19,20000	5058
19,21067	5061
19,22133	5063
19,23200	5059
19,24267	5066
19,25333	5076
19,26400	5078
19,27467	5071
19,28533	5076
19,29600	5080
19,30667	5082
19,31733	5094
19,32800	5091
19,33867	5094
19,34933	5103
19,36000	5104
19,37067	5108
19,38133	5107
19,39200	5117
19,40267	5121
19,41333	5127
19,42400	5145
19,43467	5142
19,44533	5141
19,45600	5151
19,46667	5154
19,47733	5152
19,48800	5166
19,49867	5169
19,50933	5178
19,52000	5179
19,53067	5179
19,54133	5182
19,55200	5189
19,56267	5196
19,57333	5209
19,58400	5209
19,59467	5209
19,60533	5217
19,61600	5217
19,62667	5224
19,63733	5240
19,64800	5253
19,65867	5255
19,66933	5249
19,68000	5246
19,69067	5247
19,70133	5253
19,71200	5252
19,72267	5260
19,73333	5257
19,74400	5257
19,75467	5260
19,76533	5271
19,77600	5274
19,78667	5278
19,79733	5277
19,80800	5283
19,81867	5289
19,82933	5302
19,84000	5302
19,85067	5304
19,86133	5315
19,87200	5320
19,88267	5322
19,89333	5332
19,90400	5338
19,91467	5337
19,92533	5348
19,93600	5347
19,94667	5357
19,95733	5353
19,96800	5361
19,97867	5368
19,98933	5373
20,00000	5381
20,01067	5385
20,02133	5384
20,03200	5379
20,04267	5388
20,05333	5397
20,06400	5407
20,07467	5408
20,08533	5415
20,09600	5421
20,10667	5422
20,11733	5429
20,12800	5435
20,13867	5445
20,14933	5441
20,16000	5439
20,17067	5445
20,18133	5448
20,19200	5451
20,20267	5459
20,21333	5472
20,22400	5469
20,23467	5479
20,24533	5484
20,25600	5485
20,26667	5487
20,27733	5497
20,28800	5496
20,29867	5501
20,30933	5507
20,32000	5506
20,33067	5513
20,34133	5516
20,35200	5529
20,36267	5537
20,37333	5543
20,38400	5545
20,39467	5562
20,40533	5568
20,41600	5570
20,42667	5577
20,43733	5583
20,44800	5584
20,45867	5591
20,46933	5590
20,48000	5590
20,49067	5600
20,50133	5602
20,51200	5611
20,52267	5611
20,53333	5616
20,54400	5625
20,55467	5625
20,56533	5628
20,57600	5634
20,58667	5642
20,59733	5645
20,60800	5656
20,61867	5652
20,62933	5657
20,64000	5663
20,65067	5660
20,66133	5667
20,67200	5670
20,68267	5678
20,69333	5681
20,70400	5678
20,71467	5681
20,72533	5688
20,73600	5694
20,74667	5692
20,75733	5698
20,76800	5705
20,77867	5709
20,78933	5721
20,80000	5723
20,81067	5722
20,82133	5727
20,83200	5727
20,84267	5732
20,85333	5743
20,86400	5753
20,87467	5752
20,88533	5756
20,89600	5760
20,90667	5763
20,91733	5776
20,92800	5786
20,93867	5803
20,94933	5820
20,96000	5849
20,97067	5891
20,98133	5927
20,99200	5971
21,00267	6026
21,01333	6087
21,02400	6162
21,03467	6225
21,04533	6297
21,05600	6358
21,06667	6416
21,07733	6455
21,08800	6486
21,09867	6497
21,10933	6482
21,12000	6460
21,13067	6423
21,14133	6378
21,15200	6321
21,16267	6269
21,17333	6226
21,18400	6176
21,19467	6128
21,20533	6090
21,21600	6058
21,22667	6041
21,23733	6021
21,24800	6006
21,25867	6005
21,26933	5999
21,28000	6005
21,29067	6009
21,30133	6012
21,31200	6014
21,32267	6022
21,33333	6033
21,34400	6042
21,35467	6042
21,36533	6056
21,37600	6058
21,38667	6061
21,39733	6059
21,40800	6054
21,41867	6059
21,42933	6059
21,44000	6056
21,45067	6052
21,46133	6047
21,47200	6049
21,48267	6055
21,49333	6052
21,50400	6054
21,51467	6061
21,52533	6063
21,53600	6071
21,54667	6073
21,55733	6076
21,56800	6076
21,57867	6077
21,58933	6083
21,60000	6081
21,61067	6088
21,62133	6085
21,63200	6094
21,64267	6090
21,65333	6100
21,66400	6102
21,67467	6103
21,68533	6111
21,69600	6116
21,70667	6116
21,71733	6124
21,72800	6136
21,73867	6138
21,74933	6137
21,76000	6144
21,77067	6158
21,78133	6161
21,79200	6166
21,80267	6171
21,81333	6173
21,82400	6178
21,83467	6186
21,84533	6184
21,85600	6194
21,86667	6202
21,87733	6206
21,88800	6208
21,89867	6218
21,90933	6215
21,92000	6217
21,93067	6227
21,94133	6236
21,95200	6235
21,96267	6254
21,97333	6256
21,98400	6260
21,99467	6261
22,00533	6267
22,01600	6275
22,02667	6277
22,03733	6288
22,04800	6296
22,05867	6298
22,06933	6301
22,08000	6306
22,09067	6310
22,10133	6319
22,11200	6317
22,12267	6320
22,13333	6325
22,14400	6340
22,15467	6343
22,16533	6347
22,17600	6353
22,18667	6355
22,19733	6356
22,20800	6370
22,21867	6376
22,22933	6376
22,24000	6385
22,25067	6389
22,26133	6393
22,27200	6399
22,28267	6407
22,29333	6415
22,30400	6427
22,31467	6438
22,32533	6446
22,33600	6460
22,34667	6465
22,35733	6468
22,36800	6476
22,37867	6492
22,38933	6505
22,40000	6515
22,41067	6520
22,42133	6529
22,43200	6533
22,44267	6537
22,45333	6526
22,46400	6533
22,47467	6531
22,48533	6541
22,49600	6538
22,50667	6538
22,51733	6540
22,52800	6540
22,53867	6539
22,54933	6539
22,56000	6542
22,57067	6553
22,58133	6557
22,59200	6553
22,60267	6561
22,61333	6575
22,62400	6574
22,63467	6578
22,64533	6584
22,65600	6587
22,66667	6592
22,67733	6599
22,68800	6603
22,69867	6611
22,70933	6615
22,72000	6625
22,73067	6627
22,74133	6628
22,75200	6634
22,76267	6641
22,77333	6646
22,78400	6655
22,79467	6656
22,80533	6668
22,81600	6677
22,82667	6679
22,83733	6679
22,84800	6690
22,85867	6704
22,86933	6703
22,88000	6716
22,89067	6724
22,90133	6731
22,91200	6742
22,92267	6753
22,93333	6762
22,94400	6777
22,95467	6788
22,96533	6793
22,97600	6809
22,98667	6826
22,99733	6837
23,00800	6850
23,01867	6861
23,02933	6858
23,04000	6857
23,05067	6857
23,06133	6858
23,07200	6855
23,08267	6859
23,09333	6856
23,10400	6859
23,11467	6849
23,12533	6856
23,13600	6851
23,14667	6843
23,15733	6849
23,16800	6850
23,17867	6860
23,18933	6863
23,20000	6858
23,21067	6856
23,22133	6862
23,23200	6871
23,24267	6873
23,25333	6884
23,26400	6887
23,27467	6894
23,28533	6897
23,29600	6901
23,30667	6907
23,31733	6913
23,32800	6927
23,33867	6927
23,34933	6928
23,36000	6929
23,37067	6939
23,38133	6947
23,39200	6955
23,40267	6964
23,41333	6965
23,42400	6969
23,43467	6975
23,44533	6976
23,45600	6986
23,46667	6992
23,47733	7000
23,48800	7009
23,49867	7005
23,50933	7011
23,52000	7010
23,53067	7022
23,54133	7027
23,55200	7033
23,56267	7033
23,57333	7041
23,58400	7041
23,59467	7048
23,60533	7058
23,61600	7060
23,62667	7069
23,63733	7069
23,64800	7075
23,65867	7084
23,66933	7090
23,68000	7091
23,69067	7094
23,70133	7102
23,71200	7108
23,72267	7121
23,73333	7123
23,74400	7129
23,75467	7134
23,76533	7143
23,77600	7149
23,78667	7157
23,79733	7164
23,80800	7174
23,81867	7180
23,82933	7186
23,84000	7203
23,85067	7208
23,86133	7222
23,87200	7237
23,88267	7239
23,89333	7252
23,90400	7257
23,91467	7273
23,92533	7276
23,93600	7275
23,94667	7284
23,95733	7291
23,96800	7291
23,97867	7290
23,98933	7298
24,00000	7299
24,01067	7302
24,02133	7303
24,03200	7319
24,04267	7320
24,05333	7329
24,06400	7337
24,07467	7338
24,08533	7345
24,09600	7344
24,10667	7350
24,11733	7355
24,12800	7361
24,13867	7364
24,14933	7366
24,16000	7371
24,17067	7373
24,18133	7373
24,19200	7379
24,20267	7378
24,21333	7382
24,22400	7390
24,23467	7400
24,24533	7398
24,25600	7411
24,26667	7410
24,27733	7415
24,28800	7424
24,29867	7435
24,30933	7432
24,32000	7439
24,33067	7447
24,34133	7447
24,35200	7455
24,36267	7468
24,37333	7472
24,38400	7476
24,39467	7487
24,40533	7491
24,41600	7495
24,42667	7509
24,43733	7517
24,44800	7522
24,45867	7531
24,46933	7534
24,48000	7537
24,49067	7550
24,50133	7552
24,51200	7558
24,52267	7569
24,53333	7577
24,54400	7581
24,55467	7589
24,56533	7606
24,57600	7605
24,58667	7605
24,59733	7612
24,60800	7621
24,61867	7627
24,62933	7632
24,64000	7637
24,65067	7642
24,66133	7645
24,67200	7655
24,68267	7661
24,69333	7672
24,70400	7661
24,71467	7671
24,72533	7677
24,73600	7688
24,74667	7692
24,75733	7690
24,76800	7696
24,77867	7706
24,78933	7714
24,80000	7711
24,81067	7716
24,82133	7718
24,83200	7722
24,84267	7731
24,85333	7735
24,86400	7739
24,87467	7747
24,88533	7750
24,89600	7753
24,90667	7767
24,91733	7780
24,92800	7782
24,93867	7787
24,94933	7802
24,96000	7810
24,97067	7823
24,98133	7829
24,99200	7833
25,00267	7847
25,01333	7854
25,02400	7860
25,03467	7873
25,04533	7876
25,05600	7883
25,06667	7891
25,07733	7896
25,08800	7892
25,09867	7895
25,10933	7895
25,12000	7906
25,13067	7912
25,14133	7915
25,15200	7920
25,16267	7925
25,17333	7925
25,18400	7936
25,19467	7942
25,20533	7953
25,21600	7961
25,22667	7971
25,23733	7975
25,24800	7981
25,25867	7992
25,26933	8001
25,28000	8009
25,29067	8019
25,30133	8027
25,31200	8027
25,32267	8033
25,33333	8040
25,34400	8051
25,35467	8059
25,36533	8069
25,37600	8081
25,38667	8088
25,39733	8093
25,40800	8102
25,41867	8112
25,42933	8116
25,44000	8129
25,45067	8133
25,46133	8145
25,47200	8149
25,48267	8156
25,49333	8160
25,50400	8177
25,51467	8193
25,52533	8197
25,53600	8199
25,54667	8209
25,55733	8217
25,56800	8220
25,57867	8244
25,58933	8261
25,60000	8275
25,61067	8286
25,62133	8301
25,63200	8320
25,64267	8344
25,65333	8359
25,66400	8381
25,67467	8405
25,68533	8429
25,69600	8449
25,70667	8461
25,71733	8471
25,72800	8484
25,73867	8493
25,74933	8491
25,76000	8497
25,77067	8489
25,78133	8479
25,79200	8484
25,80267	8481
25,81333	8480
25,82400	8474
25,83467	8472
25,84533	8467
25,85600	8466
25,86667	8484
25,87733	8479
25,88800	8491
25,89867	8495
25,90933	8515
25,92000	8521
25,93067	8524
25,94133	8531
25,95200	8528
25,96267	8545
25,97333	8556
25,98400	8552
25,99467	8558
26,00533	8571
26,01600	8577
26,02667	8583
26,03733	8591
26,04800	8595
26,05867	8595
26,06933	8597
26,08000	8609
26,09067	8619
26,10133	8623
26,11200	8628
26,12267	8636
26,13333	8646
26,14400	8655
26,15467	8661
26,16533	8665
26,17600	8675
26,18667	8684
26,19733	8688
26,20800	8694
26,21867	8707
26,22933	8720
26,24000	8726
26,25067	8731
26,26133	8740
26,27200	8748
26,28267	8771
26,29333	8781
26,30400	8796
26,31467	8802
26,32533	8821
26,33600	8830
26,34667	8843
26,35733	8861
26,36800	8879
26,37867	8900
26,38933	8908
26,40000	8923
26,41067	8920
26,42133	8929
26,43200	8937
26,44267	8937
26,45333	8946
26,46400	8947
26,47467	8950
26,48533	8952
26,49600	8960
26,50667	8963
26,51733	8972
26,52800	8980
26,53867	8993
26,54933	9000
26,56000	9006
26,57067	9013
26,58133	9018
26,59200	9028
26,60267	9038
26,61333	9037
26,62400	9041
26,63467	9047
26,64533	9055
26,65600	9051
26,66667	9059
26,67733	9069
26,68800	9066
26,69867	9072
26,70933	9082
26,72000	9080
26,73067	9087
26,74133	9089
26,75200	9095
26,76267	9098
26,77333	9115
26,78400	9126
26,79467	9130
26,80533	9133
26,81600	9142
26,82667	9146
26,83733	9148
26,84800	9152
26,85867	9162
26,86933	9173
26,88000	9175
26,89067	9184
26,90133	9197
26,91200	9207
26,92267	9219
26,93333	9224
26,94400	9228
26,95467	9234
26,96533	9253
26,97600	9256
26,98667	9261
26,99733	9265
27,00800	9273
27,01867	9277
27,02933	9278
27,04000	9284
27,05067	9289
27,06133	9293
27,07200	9304
27,08267	9315
27,09333	9312
27,10400	9313
27,11467	9309
27,12533	9321
27,13600	9324
27,14667	9331
27,15733	9332
27,16800	9335
27,17867	9341
27,18933	9350
27,20000	9356
27,21067	9367
27,22133	9373
27,23200	9376
27,24267	9393
27,25333	9401
27,26400	9406
27,27467	9417
27,28533	9430
27,29600	9440
27,30667	9455
27,31733	9464
27,32800	9476
27,33867	9488
27,34933	9512
27,36000	9529
27,37067	9552
27,38133	9564
27,39200	9583
27,40267	9593
27,41333	9601
27,42400	9616
27,43467	9614
27,44533	9616
27,45600	9611
27,46667	9612
27,47733	9601
27,48800	9601
27,49867	9582
27,50933	9577
27,52000	9577
27,53067	9576
27,54133	9570
27,55200	9562
27,56267	9564
27,57333	9568
27,58400	9570
27,59467	9579
27,60533	9586
27,61600	9589
27,62667	9599
27,63733	9595
27,64800	9598
27,65867	9609
27,66933	9615
27,68000	9621
27,69067	9638
27,70133	9638
27,71200	9647
27,72267	9654
27,73333	9658
27,74400	9664
27,75467	9681
27,76533	9684
27,77600	9690
27,78667	9698
27,79733	9704
27,80800	9716
27,81867	9724
27,82933	9736
27,84000	9739
27,85067	9756
27,86133	9765
27,87200	9776
27,88267	9772
27,89333	9784
27,90400	9791
27,91467	9809
27,92533	9818
27,93600	9822
27,94667	9825
27,95733	9834
27,96800	9840
27,97867	9841
27,98933	9845
28,00000	9848
28,01067	9862
28,02133	9873
28,03200	9882
28,04267	9890
28,05333	9899
28,06400	9908
28,07467	9919
28,08533	9934
28,09600	9959
28,10667	9960
28,11733	9975
28,12800	9988
28,13867	10003
28,14933	10021
28,16000	10034
28,17067	10037
28,18133	10048
28,19200	10058
28,20267	10067
28,21333	10076
28,22400	10080
28,23467	10084
28,24533	10094
28,25600	10105
28,26667	10114
28,27733	10113
28,28800	10120
28,29867	10128
28,30933	10127
28,32000	10137
28,33067	10141
28,34133	10153
28,35200	10166
28,36267	10172
28,37333	10183
28,38400	10189
28,39467	10198
28,40533	10210
28,41600	10215
28,42667	10232
28,43733	10247
28,44800	10255
28,45867	10261
28,46933	10268
28,48000	10274
28,49067	10279
28,50133	10295
28,51200	10302
28,52267	10312
28,53333	10311
28,54400	10320
28,55467	10327
28,56533	10332
28,57600	10333
28,58667	10343
28,59733	10351
28,60800	10355
28,61867	10365
28,62933	10369
28,64000	10380
28,65067	10392
28,66133	10397
28,67200	10393
28,68267	10400
28,69333	10400
28,70400	10413
28,71467	10415
28,72533	10414
28,73600	10417
28,74667	10424
28,75733	10428
28,76800	10430
28,77867	10430
28,78933	10434
28,80000	10442
28,81067	10446
28,82133	10446
28,83200	10455
28,84267	10455
28,85333	10457
28,86400	10463
28,87467	10466
28,88533	10472
28,89600	10472
28,90667	10477
28,91733	10485
28,92800	10494
28,93867	10497
28,94933	10502
28,96000	10507
28,97067	10522
28,98133	10528
28,99200	10526
29,00267	10530
29,01333	10534
29,02400	10538
29,03467	10541
29,04533	10552
29,05600	10554
29,06667	10554
29,07733	10566
29,08800	10566
29,09867	10578
29,10933	10579
29,12000	10583
29,13067	10594
29,14133	10598
29,15200	10616
29,16267	10627
29,17333	10630
29,18400	10645
29,19467	10650
29,20533	10661
29,21600	10668
29,22667	10677
29,23733	10689
29,24800	10702
29,25867	10721
29,26933	10725
29,28000	10731
29,29067	10748
29,30133	10758
29,31200	10762
29,32267	10778
29,33333	10790
29,34400	10803
29,35467	10810
29,36533	10812
29,37600	10812
29,38667	10814
29,39733	10826
29,40800	10838
29,41867	10843
29,42933	10857
29,44000	10863
29,45067	10863
29,46133	10873
29,47200	10886
29,48267	10893
29,49333	10894
29,50400	10901
29,51467	10908
29,52533	10924
29,53600	10931
29,54667	10946
29,55733	10961
29,56800	10963
29,57867	10977
29,58933	10984
29,60000	11002
29,61067	11010
29,62133	11028
29,63200	11041
29,64267	11043
29,65333	11053
29,66400	11064
29,67467	11076
29,68533	11071
29,69600	11078
29,70667	11080
29,71733	11079
29,72800	11083
29,73867	11087
29,74933	11088
29,76000	11088
29,77067	11085
29,78133	11081
29,79200	11088
29,80267	11092
29,81333	11093
29,82400	11100
29,83467	11107
29,84533	11116
29,85600	11126
29,86667	11124
29,87733	11128
29,88800	11131
29,89867	11147
29,90933	11154
29,92000	11173
29,93067	11179
29,94133	11186
29,95200	11204
29,96267	11205
29,97333	11219
29,98400	11228
29,99467	11240
30,00533	11254
30,01600	11265
30,02667	11270
30,03733	11282
30,04800	11289
30,05867	11312
30,06933	11314
30,08000	11322
30,09067	11337
30,10133	11353
30,11200	11363
30,12267	11372
30,13333	11376
30,14400	11392
30,15467	11402
30,16533	11409
30,17600	11409
30,18667	11409
30,19733	11415
30,20800	11413
30,21867	11424
30,22933	11422
30,24000	11421
30,25067	11434
30,26133	11436
30,27200	11446
30,28267	11449
30,29333	11447
30,30400	11451
30,31467	11462
30,32533	11471
30,33600	11474
30,34667	11481
30,35733	11491
30,36800	11495
30,37867	11503
30,38933	11512
30,40000	11520
30,41067	11526
30,42133	11536
30,43200	11545
30,44267	11560
30,45333	11570
30,46400	11573
30,47467	11587
30,48533	11603
30,49600	11617
30,50667	11623
30,51733	11636
30,52800	11651
30,53867	11658
30,54933	11668
30,56000	11669
30,57067	11679
30,58133	11690
30,59200	11699
30,60267	11710
30,61333	11717
30,62400	11729
30,63467	11735
30,64533	11744
30,65600	11748
30,66667	11760
30,67733	11768
30,68800	11778
30,69867	11786
30,70933	11794
30,72000	11802
30,73067	11816
30,74133	11816
30,75200	11817
30,76267	11831
30,77333	11843
30,78400	11854
30,79467	11862
30,80533	11867
30,81600	11886
30,82667	11883
30,83733	11899
30,84800	11912
30,85867	11909
30,86933	11925
30,88000	11937
30,89067	11950
30,90133	11955
30,91200	11973
30,92267	11982
30,93333	11985
30,94400	11996
30,95467	11992
30,96533	11998
30,97600	12004
30,98667	12008
30,99733	12021
31,00800	12037
31,01867	12049
31,02933	12057
31,04000	12060
31,05067	12059
31,06133	12075
31,07200	12079
31,08267	12091
31,09333	12096
31,10400	12098
31,11467	12102
31,12533	12114
31,13600	12117
31,14667	12126
31,15733	12130
31,16800	12135
31,17867	12151
31,18933	12154
31,20000	12162
31,21067	12165
31,22133	12178
31,23200	12188
31,24267	12191
31,25333	12196
31,26400	12205
31,27467	12207
31,28533	12218
31,29600	12222
31,30667	12236
31,31733	12238
31,32800	12242
31,33867	12254
31,34933	12263
31,36000	12268
31,37067	12280
31,38133	12295
31,39200	12297
31,40267	12300
31,41333	12312
31,42400	12324
31,43467	12326
31,44533	12326
31,45600	12335
31,46667	12348
31,47733	12359
31,48800	12367
31,49867	12370
31,50933	12383
31,52000	12390
31,53067	12403
31,54133	12418
31,55200	12426
31,56267	12429
31,57333	12435
31,58400	12444
31,59467	12458
31,60533	12463
31,61600	12474
31,62667	12477
31,63733	12481
31,64800	12497
31,65867	12498
31,66933	12511
31,68000	12521
31,69067	12519
31,70133	12533
31,71200	12538
31,72267	12537
31,73333	12540
31,74400	12551
31,75467	12558
31,76533	12560
31,77600	12559
31,78667	12569
31,79733	12579
31,80800	12579
31,81867	12584
31,82933	12594
31,84000	12593
31,85067	12612
31,86133	12610
31,87200	12616
31,88267	12614
31,89333	12622
31,90400	12627
31,91467	12633
31,92533	12640
31,93600	12652
31,94667	12659
31,95733	12666
31,96800	12663
31,97867	12667
31,98933	12678
32,00000	12685
32,01067	12688
32,02133	12698
32,03200	12700
32,04267	12705
32,05333	12714
32,06400	12720
32,07467	12721
32,08533	12722
32,09600	12725
32,10667	12730
32,11733	12739
32,12800	12753
32,13867	12761
32,14933	12767
32,16000	12779
32,17067	12780
32,18133	12786
32,19200	12793
32,20267	12807
32,21333	12816
32,22400	12816
32,23467	12820
32,24533	12833
32,25600	12841
32,26667	12848
32,27733	12846
32,28800	12857
32,29867	12865
32,30933	12879
32,32000	12889
32,33067	12906
32,34133	12906
32,35200	12923
32,36267	12940
32,37333	12951
32,38400	12967
32,39467	12965
32,40533	12984
32,41600	12997
32,42667	13015
32,43733	13034
32,44800	13042
32,45867	13060
32,46933	13080
32,48000	13092
32,49067	13111
32,50133	13139
32,51200	13156
32,52267	13173
32,53333	13186
32,54400	13208
32,55467	13232
32,56533	13257
32,57600	13284
32,58667	13319
32,59733	13344
32,60800	13371
32,61867	13397
32,62933	13426
32,64000	13451
32,65067	13481
32,66133	13515
32,67200	13555
32,68267	13596
32,69333	13634
32,70400	13666
32,71467	13704
32,72533	13748
32,73600	13793
32,74667	13833
32,75733	13873
32,76800	13921
32,77867	13971
32,78933	14026
32,80000	14079
32,81067	14126
32,82133	14185
32,83200	14245
32,84267	14309
32,85333	14373
32,86400	14450
32,87467	14519
32,88533	14599
32,89600	14680
32,90667	14766
32,91733	14857
32,92800	14954
32,93867	15053
32,94933	15155
32,96000	15265
32,97067	15373
32,98133	15483
32,99200	15585
33,00267	15691
33,01333	15791
33,02400	15883
33,03467	15976
33,04533	16065
33,05600	16161
33,06667	16242
33,07733	16331
33,08800	16415
33,09867	16508
33,10933	16588
33,12000	16675
33,13067	16767
33,14133	16856
33,15200	16953
33,16267	17037
33,17333	17128
33,18400	17234
33,19467	17326
33,20533	17422
33,21600	17523
33,22667	17615
33,23733	17704
33,24800	17808
33,25867	17901
33,26933	18002
33,28000	18098
33,29067	18196
33,30133	18283
33,31200	18377
33,32267	18466
33,33333	18556
33,34400	18638
33,35467	18721
33,36533	18803
33,37600	18886
33,38667	18972
33,39733	19053
33,40800	19148
33,41867	19246
33,42933	19337
33,44000	19425
33,45067	19519
33,46133	19615
33,47200	19712
33,48267	19803
33,49333	19896
33,50400	19989
33,51467	20085
33,52533	20173
33,53600	20266
33,54667	20370
33,55733	20465
33,56800	20563
33,57867	20663
33,58933	20769
33,60000	20877
33,61067	20981
33,62133	21081
33,63200	21198
33,64267	21316
33,65333	21439
33,66400	21547
33,67467	21666
33,68533	21783
33,69600	21888
33,70667	21994
33,71733	22093
33,72800	22202
33,73867	22310
33,74933	22411
33,76000	22510
33,77067	22617
33,78133	22725
33,79200	22829
33,80267	22926
33,81333	23019
33,82400	23126
33,83467	23232
33,84533	23331
33,85600	23428
33,86667	23550
33,87733	23685
33,88800	23800
33,89867	23918
33,90933	24042
33,92000	24149
33,93067	24256
33,94133	24358
33,95200	24459
33,96267	24567
33,97333	24670
33,98400	24776
33,99467	24866
34,00533	24990
34,01600	25105
34,02667	25231
34,03733	25368
34,04800	25533
34,05867	25711
34,06933	25908
34,08000	26105
34,09067	26275
34,10133	26414
34,11200	26509
34,12267	26579
34,13333	26639
34,14400	26698
34,15467	26769
34,16533	26861
34,17600	26965
34,18667	27085
34,19733	27225
34,20800	27391
34,21867	27574
34,22933	27785
34,24000	28006
34,25067	28239
34,26133	28475
34,27200	28699
34,28267	28917
34,29333	29107
34,30400	29264
34,31467	29381
34,32533	29479
34,33600	29560
34,34667	29617
34,35733	29690
34,36800	29789
34,37867	29903
34,38933	30038
34,40000	30200
34,41067	30393
34,42133	30641
34,43200	30937
34,44267	31242
34,45333	31538
34,46400	31800
34,47467	31994
34,48533	32122
34,49600	32197
34,50667	32220
34,51733	32242
34,52800	32250
34,53867	32261
34,54933	32270
34,56000	32288
34,57067	32331
34,58133	32349
34,59200	32391
34,60267	32434
34,61333	32513
34,62400	32593
34,63467	32687
34,64533	32759
34,65600	32840
34,66667	32907
34,67733	32959
34,68800	33023
34,69867	33091
34,70933	33159
34,72000	33236
34,73067	33316
34,74133	33400
34,75200	33502
34,76267	33609
34,77333	33721
34,78400	33861
34,79467	34021
34,80533	34176
34,81600	34322
34,82667	34467
34,83733	34601
34,84800	34753
34,85867	34916
34,86933	35076
34,88000	35209
34,89067	35299
34,90133	35370
34,91200	35442
34,92267	35527
34,93333	35623
34,94400	35733
34,95467	35867
34,96533	36072
34,97600	36430
34,98667	37308
34,99733	39554
35,00800	44489
35,01867	53721
35,02933	68278
35,04000	88170
35,05067	111329
35,06133	133198
35,07200	147184
35,08267	148609
35,09333	138384
35,10400	121999
35,11467	105011
35,12533	90678
35,13600	79697
35,14667	71733
35,15733	66101
35,16800	62256
35,17867	59676
35,18933	57847
35,20000	56325
35,21067	54915
35,22133	53594
35,23200	52409
35,24267	51410
35,25333	50591
35,26400	49927
35,27467	49371
35,28533	48893
35,29600	48469
35,30667	48093
35,31733	47766
35,32800	47480
35,33867	47252
35,34933	47075
35,36000	46935
35,37067	46773
35,38133	46445
35,39200	45983
35,40267	45469
35,41333	45085
35,42400	44994
35,43467	45366
35,44533	46480
35,45600	48473
35,46667	50957
35,47733	53143
35,48800	54301
35,49867	54323
35,50933	53563
35,52000	52442
35,53067	51141
35,54133	49807
35,55200	48674
35,56267	48049
35,57333	48134
35,58400	48730
35,59467	49320
35,60533	49419
35,61600	48893
35,62667	48001
35,63733	47068
35,64800	46266
35,65867	45610
35,66933	45103
35,68000	44721
35,69067	44443
35,70133	44252
35,71200	44128
35,72267	44055
35,73333	44028
35,74400	44036
35,75467	44055
35,76533	44099
35,77600	44188
35,78667	44340
35,79733	44598
35,80800	45004
35,81867	45553
35,82933	46159
35,84000	46673
35,85067	46958
35,86133	47002
35,87200	46905
35,88267	46748
35,89333	46533
35,90400	46248
35,91467	45904
35,92533	45527
35,93600	45173
35,94667	44884
35,95733	44663
35,96800	44511
35,97867	44417
35,98933	44390
36,00000	44432
36,01067	44538
36,02133	44643
36,03200	44727
36,04267	44751
36,05333	44721
36,06400	44662
36,07467	44577
36,08533	44518
36,09600	44488
36,10667	44509
36,11733	44560
36,12800	44637
36,13867	44757
36,14933	44900
36,16000	45078
36,17067	45248
36,18133	45433
36,19200	45588
36,20267	45719
36,21333	45833
36,22400	45952
36,23467	46080
36,24533	46204
36,25600	46275
36,26667	46265
36,27733	46216
36,28800	46216
36,29867	46337
36,30933	46633
36,32000	47051
36,33067	47428
36,34133	47608
36,35200	47510
36,36267	47209
36,37333	46866
36,38400	46549
36,39467	46301
36,40533	46107
36,41600	45946
36,42667	45814
36,43733	45717
36,44800	45648
36,45867	45597
36,46933	45564
36,48000	45579
36,49067	45614
36,50133	45629
36,51200	45667
36,52267	45702
36,53333	45742
36,54400	45771
36,55467	45802
36,56533	45825
36,57600	45862
36,58667	45888
36,59733	45913
36,60800	45935
36,61867	45963
36,62933	45998
36,64000	46029
36,65067	46083
36,66133	46143
36,67200	46200
36,68267	46275
36,69333	46342
36,70400	46386
36,71467	46434
36,72533	46462
36,73600	46487
36,74667	46545
36,75733	46632
36,76800	46735
36,77867	46828
36,78933	46899
36,80000	46907
36,81067	46850
36,82133	46784
36,83200	46696
36,84267	46632
36,85333	46567
36,86400	46543
36,87467	46521
36,88533	46518
36,89600	46522
36,90667	46528
36,91733	46532
36,92800	46551
36,93867	46573
36,94933	46601
36,96000	46656
36,97067	46732
36,98133	46856
36,99200	47056
37,00267	47297
37,01333	47571
37,02400	47799
37,03467	47956
37,04533	48007
37,05600	47933
37,06667	47770
37,07733	47559
37,08800	47352
37,09867	47177
37,10933	47044
37,12000	46949
37,13067	46887
37,14133	46857
37,15200	46845
37,16267	46854
37,17333	46900
37,18400	46965
37,19467	47058
37,20533	47175
37,21600	47267
37,22667	47336
37,23733	47346
37,24800	47315
37,25867	47235
37,26933	47147
37,28000	47071
37,29067	47003
37,30133	46949
37,31200	46916
37,32267	46892
37,33333	46887
37,34400	46876
37,35467	46858
37,36533	46848
37,37600	46843
37,38667	46852
37,39733	46847
37,40800	46844
37,41867	46849
37,42933	46849
37,44000	46851
37,45067	46843
37,46133	46840
37,47200	46840
37,48267	46846
37,49333	46852
37,50400	46857
37,51467	46857
37,52533	46850
37,53600	46839
37,54667	46828
37,55733	46818
37,56800	46818
37,57867	46793
37,58933	46770
37,60000	46753
37,61067	46748
37,62133	46739
37,63200	46718
37,64267	46719
37,65333	46703
37,66400	46690
37,67467	46678
37,68533	46673
37,69600	46665
37,70667	46654
37,71733	46649
37,72800	46647
37,73867	46642
37,74933	46652
37,76000	46665
37,77067	46671
37,78133	46680
37,79200	46688
37,80267	46691
37,81333	46675
37,82400	46643
37,83467	46615
37,84533	46577
37,85600	46548
37,86667	46516
37,87733	46494
37,88800	46472
37,89867	46448
37,90933	46428
37,92000	46417
37,93067	46410
37,94133	46402
37,95200	46387
37,96267	46378
37,97333	46361
37,98400	46343
37,99467	46342
38,00533	46326
38,01600	46318
38,02667	46308
38,03733	46298
38,04800	46291
38,05867	46282
38,06933	46266
38,08000	46264
38,09067	46245
38,10133	46223
38,11200	46219
38,12267	46211
38,13333	46198
38,14400	46194
38,15467	46185
38,16533	46172
38,17600	46162
38,18667	46159
38,19733	46158
38,20800	46163
38,21867	46159
38,22933	46160
38,24000	46162
38,25067	46161
38,26133	46157
38,27200	46150
38,28267	46144
38,29333	46131
38,30400	46127
38,31467	46112
38,32533	46095
38,33600	46076
38,34667	46061
38,35733	46048
38,36800	46041
38,37867	46027
38,38933	46015
38,40000	46015
38,41067	46013
38,42133	45992
38,43200	45989
38,44267	45979
38,45333	45969
38,46400	45964
38,47467	45968
38,48533	45955
38,49600	45948
38,50667	45944
38,51733	45937
38,52800	45931
38,53867	45928
38,54933	45917
38,56000	45923
38,57067	45910
38,58133	45902
38,59200	45899
38,60267	45887
38,61333	45877
38,62400	45877
38,63467	45881
38,64533	45875
38,65600	45867
38,66667	45876
38,67733	45890
38,68800	45886
38,69867	45892
38,70933	45898
38,72000	45907
38,73067	45924
38,74133	45960
38,75200	46017
38,76267	46133
38,77333	46326
38,78400	46648
38,79467	47168
38,80533	47979
38,81600	49183
38,82667	50882
38,83733	53176
38,84800	56080
38,85867	59554
38,86933	63408
38,88000	67306
38,89067	70827
38,90133	73515
38,91200	75013
38,92267	75080
38,93333	73730
38,94400	71173
38,95467	67806
38,96533	64044
38,97600	60327
38,98667	56958
38,99733	54122
39,00800	51903
39,01867	50219
39,02933	49025
39,04000	48177
39,05067	47596
39,06133	47193
39,07200	46905
39,08267	46690
39,09333	46524
39,10400	46374
39,11467	46246
39,12533	46139
39,13600	46024
39,14667	45910
39,15733	45798
39,16800	45687
39,17867	45562
39,18933	45445
39,20000	45313
39,21067	45180
39,22133	45040
39,23200	44899
39,24267	44745
39,25333	44583
39,26400	44413
39,27467	44233
39,28533	44044
39,29600	43858
39,30667	43664
39,31733	43454
39,32800	43232
39,33867	43006
39,34933	42779
39,36000	42553
39,37067	42319
39,38133	42080
39,39200	41834
39,40267	41592
39,41333	41348
39,42400	41091
39,43467	40846
39,44533	40629
39,45600	40407
39,46667	40163
39,47733	39942
39,48800	39731
39,49867	39516
39,50933	39273
39,52000	39026
39,53067	38779
39,54133	38506
39,55200	38195
39,56267	37850
39,57333	37484
39,58400	37088
39,59467	36695
39,60533	36306
39,61600	35942
39,62667	35570
39,63733	35122
39,64800	34597
39,65867	33965
39,66933	33204
39,68000	32334
39,69067	31341
39,70133	30275
39,71200	29131
39,72267	27926
39,73333	26711
39,74400	25490
39,75467	24245
39,76533	22963
39,77600	21676
39,78667	20412
39,79733	19187
39,80800	18008
39,81867	16894
39,82933	15829
39,84000	14843
39,85067	13914
39,86133	13045
39,87200	12232
39,88267	11482
39,89333	10784
39,90400	10142
39,91467	9554
39,92533	9023
39,93600	8531
39,94667	8073
39,95733	7649
39,96800	7266
39,97867	6914
39,98933	6583
40,00000	6281
40,01067	5993
40,02133	5743
40,03200	5502
40,04267	5272
40,05333	5058
40,06400	4857
40,07467	4669
40,08533	4499
40,09600	4333
40,10667	4187
40,11733	4042
40,12800	3900
40,13867	3763
40,14933	3634
40,16000	3520
40,17067	3408
40,18133	3299
40,19200	3190
40,20267	3084
40,21333	2991
40,22400	2895
40,23467	2819
40,24533	2737
40,25600	2658
40,26667	2577
40,27733	2496
40,28800	2434
40,29867	2361
40,30933	2300
40,32000	2238
40,33067	2180
40,34133	2119
40,35200	2060
40,36267	2009
40,37333	1958
40,38400	1900
40,39467	1864
40,40533	1817
40,41600	1769
40,42667	1732
40,43733	1687
40,44800	1651
40,45867	1607
40,46933	1568
40,48000	1532
40,49067	1494
40,50133	1466
40,51200	1432
40,52267	1401
40,53333	1374
40,54400	1341
40,55467	1302
40,56533	1266
40,57600	1237
40,58667	1212
40,59733	1179
40,60800	1152
40,61867	1122
40,62933	1090
40,64000	1069
40,65067	1034
40,66133	1007
40,67200	977
40,68267	953
40,69333	931
40,70400	903
40,71467	883
40,72533	857
40,73600	831
40,74667	806
40,75733	781
40,76800	755
40,77867	729
40,78933	711
40,80000	688
40,81067	660
40,82133	639
40,83200	620
40,84267	594
40,85333	583
40,86400	556
40,87467	530
40,88533	511
40,89600	492
40,90667	473
40,91733	454
40,92800	436
40,93867	417
40,94933	402
40,96000	379
40,97067	367
40,98133	341
40,99200	331
41,00267	309
41,01333	291
41,02400	288
41,03467	270
41,04533	247
41,05600	239
41,06667	233
41,07733	217
41,08800	205
41,09867	199
41,10933	181
41,12000	171
41,13067	157
41,14133	149
41,15200	145
41,16267	139
41,17333	128
41,18400	120
41,19467	108
41,20533	103
41,21600	86
41,22667	80
41,23733	73
41,24800	72
41,25867	59
41,26933	49
41,28000	44
41,29067	36
41,30133	22
41,31200	19
41,32267	16
41,33333	11
41,34400	4
41,35467	-4
41,36533	-7
41,37600	-19
41,38667	-25
41,39733	-23
41,40800	-26
41,41867	-31
41,42933	-27
41,44000	-32
41,45067	-37
41,46133	-42
41,47200	-41
41,48267	-35
41,49333	-38
41,50400	-36
41,51467	-31
41,52533	-30
41,53600	-21
41,54667	-24
41,55733	-21
41,56800	-23
41,57867	-13
41,58933	-17
41,60000	-11
41,61067	-1
41,62133	-1
41,63200	4
41,64267	9
41,65333	16
41,66400	17
41,67467	27
41,68533	28
41,69600	39
41,70667	52
41,71733	52
41,72800	51
41,73867	61
41,74933	63
41,76000	74
41,77067	85
41,78133	94
41,79200	94
41,80267	103
41,81333	106
41,82400	114
41,83467	119
41,84533	122
41,85600	123
41,86667	134
41,87733	140
41,88800	151
41,89867	155
41,90933	162
41,92000	165
41,93067	172
41,94133	178
41,95200	177
41,96267	181
41,97333	202
41,98400	203
41,99467	201
42,00533	212
42,01600	218
42,02667	224
42,03733	222
42,04800	227
42,05867	231
42,06933	234
42,08000	238
42,09067	241
42,10133	248
42,11200	246
42,12267	257
42,13333	260
42,14400	261
42,15467	264
42,16533	260
42,17600	263
42,18667	269
42,19733	269
42,20800	273
42,21867	278
42,22933	282
42,24000	277
42,25067	282
42,26133	279
42,27200	283
42,28267	283
42,29333	288
42,30400	283
42,31467	287
42,32533	292
42,33600	297
42,34667	299
42,35733	296
42,36800	294
42,37867	298
42,38933	297
42,40000	301
42,41067	301
42,42133	294
42,43200	295
42,44267	304
42,45333	298
42,46400	298
42,47467	299
42,48533	300
42,49600	299
42,50667	303
42,51733	299
42,52800	296
42,53867	293
42,54933	300
42,56000	307
42,57067	307
42,58133	301
42,59200	301
42,60267	292
42,61333	300
42,62400	301
42,63467	298
42,64533	304
42,65600	299
42,66667	301
42,67733	295
42,68800	302
42,69867	296
42,70933	300
42,72000	306
42,73067	306
42,74133	308
42,75200	306
42,76267	302
42,77333	307
42,78400	306
42,79467	297
42,80533	296
42,81600	288
42,82667	289
42,83733	285
42,84800	287
42,85867	295
42,86933	289
42,88000	286
42,89067	284
42,90133	288
42,91200	288
42,92267	285
42,93333	287
42,94400	286
42,95467	286
42,96533	285
42,97600	289
42,98667	287
42,99733	285
43,00800	283
43,01867	290
43,02933	282
43,04000	282
43,05067	290
43,06133	288
43,07200	286
43,08267	280
43,09333	284
43,10400	276
43,11467	278
43,12533	284
43,13600	286
43,14667	281
43,15733	282
43,16800	277
43,17867	281
43,18933	286
43,20000	285
43,21067	282
43,22133	280
43,23200	281
43,24267	281
43,25333	283
43,26400	283
43,27467	286
43,28533	295
43,29600	286
43,30667	282
43,31733	278
43,32800	280
43,33867	278
43,34933	274
43,36000	281
43,37067	278
43,38133	279
43,39200	277
43,40267	278
43,41333	272
43,42400	279
43,43467	275
43,44533	278
43,45600	275
43,46667	270
43,47733	271
43,48800	272
43,49867	262
43,50933	270
43,52000	274
43,53067	273
43,54133	270
43,55200	274
43,56267	275
43,57333	282
43,58400	280
43,59467	283
43,60533	278
43,61600	281
43,62667	282
43,63733	281
43,64800	277
43,65867	277
43,66933	272
43,68000	275
43,69067	273
43,70133	272
43,71200	270
43,72267	275
43,73333	276
43,74400	276
43,75467	284
43,76533	277
43,77600	276
43,78667	277
43,79733	271
43,80800	273
43,81867	278
43,82933	276
43,84000	281
43,85067	275
43,86133	277
43,87200	273
43,88267	274
43,89333	275
43,90400	278
43,91467	272
43,92533	265
43,93600	267
43,94667	270
43,95733	273
43,96800	264
43,97867	262
43,98933	268
44,00000	268
44,01067	268
44,02133	271
44,03200	268
44,04267	262
44,05333	263
44,06400	268
44,07467	259
44,08533	263
44,09600	265
44,10667	259
44,11733	263
44,12800	260
44,13867	265
44,14933	268
44,16000	268
44,17067	263
44,18133	263
44,19200	264
44,20267	257
44,21333	257
44,22400	258
44,23467	264
44,24533	256
44,25600	256
44,26667	259
44,27733	257
44,28800	261
44,29867	256
44,30933	253
44,32000	259
44,33067	248
44,34133	255
44,35200	256
44,36267	256
44,37333	257
44,38400	252
44,39467	252
44,40533	258
44,41600	251
44,42667	256
44,43733	253
44,44800	253
44,45867	254
44,46933	255
44,48000	250
44,49067	242
44,50133	245
44,51200	257
44,52267	255
44,53333	254
44,54400	255
44,55467	252
44,56533	251
44,57600	256
44,58667	252
44,59733	245
44,60800	247
44,61867	250
44,62933	256
44,64000	254
44,65067	247
44,66133	247
44,67200	243
44,68267	253
44,69333	254
44,70400	246
44,71467	244
44,72533	248
44,73600	245
44,74667	247
44,75733	248
44,76800	250
44,77867	253
44,78933	251
44,80000	250
44,81067	248
44,82133	252
44,83200	253
44,84267	245
44,85333	251
44,86400	254
44,87467	251
44,88533	255
44,89600	252
44,90667	255
44,91733	255
44,92800	259
44,93867	256
44,94933	258
44,96000	257
44,97067	260
44,98133	250
44,99200	244
45,00267	241
45,01333	246
45,02400	248
45,03467	245
45,04533	250
45,05600	249
45,06667	249
45,07733	247
45,08800	247
45,09867	249
45,10933	249
45,12000	256
45,13067	257
45,14133	251
45,15200	249
45,16267	241
45,17333	248
45,18400	257
45,19467	256
45,20533	256
45,21600	259
45,22667	247
45,23733	248
45,24800	240
45,25867	251
45,26933	250
45,28000	243
45,29067	243
45,30133	252
45,31200	259
45,32267	253
45,33333	251
45,34400	259
45,35467	249
45,36533	255
45,37600	257
45,38667	255
45,39733	256
45,40800	258
45,41867	256
45,42933	253
45,44000	252
45,45067	255
45,46133	258
45,47200	253
45,48267	253
45,49333	250
45,50400	252
45,51467	255
45,52533	243
45,53600	247
45,54667	249
45,55733	252
45,56800	250
45,57867	256
45,58933	252
45,60000	254
45,61067	252
45,62133	246
45,63200	245
45,64267	249
45,65333	256
45,66400	256
45,67467	245
45,68533	238
45,69600	245
45,70667	252
45,71733	250
45,72800	254
45,73867	258
45,74933	255
45,76000	258
45,77067	253
45,78133	252
45,79200	256
45,80267	256
45,81333	259
45,82400	262
45,83467	261
45,84533	251
45,85600	255
45,86667	252
45,87733	254
45,88800	253
45,89867	256
45,90933	260
45,92000	252
45,93067	257
45,94133	254
45,95200	243
45,96267	250
45,97333	256
45,98400	247
45,99467	250
46,00533	254
46,01600	251
46,02667	244
46,03733	242
46,04800	242
46,05867	241
46,06933	241
46,08000	247
46,09067	246
46,10133	239
46,11200	246
46,12267	249
46,13333	246
46,14400	247
46,15467	252
46,16533	249
46,17600	239
46,18667	244
46,19733	243
46,20800	244
46,21867	249
46,22933	241
46,24000	237
46,25067	238
46,26133	242
46,27200	250
46,28267	237
46,29333	247
46,30400	252
46,31467	245
46,32533	244
46,33600	241
46,34667	244
46,35733	247
46,36800	255
46,37867	251
46,38933	246
46,40000	243
46,41067	245
46,42133	250
46,43200	255
46,44267	251
46,45333	247
46,46400	252
46,47467	245
46,48533	252
46,49600	251
46,50667	251
46,51733	243
46,52800	242
46,53867	235
46,54933	243
46,56000	248
46,57067	245
46,58133	244
46,59200	249
46,60267	244
46,61333	249
46,62400	249
46,63467	244
46,64533	252
46,65600	252
46,66667	255
46,67733	253
46,68800	251
46,69867	246
46,70933	246
46,72000	246
46,73067	255
46,74133	253
46,75200	251
46,76267	244
46,77333	247
46,78400	248
46,79467	245
46,80533	244
46,81600	248
46,82667	247
46,83733	258
46,84800	256
46,85867	247
46,86933	249
46,88000	248
46,89067	250
46,90133	250
46,91200	251
46,92267	236
46,93333	247
46,94400	240
46,95467	240
46,96533	240
46,97600	244
46,98667	232
46,99733	238
47,00800	243
47,01867	248
47,02933	239
47,04000	247
47,05067	246
47,06133	241
47,07200	236
47,08267	241
47,09333	246
47,10400	241
47,11467	241
47,12533	245
47,13600	246
47,14667	231
47,15733	240
47,16800	244
47,17867	242
47,18933	239
47,20000	246
47,21067	245
47,22133	243
47,23200	247
47,24267	246
47,25333	248
47,26400	249
47,27467	247
47,28533	246
47,29600	241
47,30667	242
47,31733	238
47,32800	239
47,33867	245
47,34933	247
47,36000	245
47,37067	243
47,38133	251
47,39200	247
47,40267	245
47,41333	241
47,42400	241
47,43467	251
47,44533	243
47,45600	251
47,46667	242
47,47733	245
47,48800	240
47,49867	241
47,50933	252
47,52000	238
47,53067	239
47,54133	240
47,55200	234
47,56267	235
47,57333	235
47,58400	230
47,59467	238
47,60533	241
47,61600	242
47,62667	242
47,63733	245
47,64800	246
47,65867	238
47,66933	248
47,68000	246
47,69067	247
47,70133	242
47,71200	246
47,72267	241
47,73333	245
47,74400	242
47,75467	240
47,76533	233
47,77600	234
47,78667	234
47,79733	236
47,80800	244
47,81867	253
47,82933	251
47,84000	245
47,85067	243
47,86133	245
47,87200	245
47,88267	243
47,89333	240
47,90400	238
47,91467	231
47,92533	229
47,93600	236
47,94667	244
47,95733	244
47,96800	245
47,97867	241
47,98933	234
48,00000	236
48,01067	239
48,02133	234
48,03200	246
48,04267	242
48,05333	242
48,06400	238
48,07467	229
48,08533	228
48,09600	237
48,10667	240
48,11733	240
48,12800	241
48,13867	242
48,14933	238
48,16000	246
48,17067	242
48,18133	237
48,19200	239
48,20267	239
48,21333	240
48,22400	234
48,23467	239
48,24533	240
48,25600	236
48,26667	233
48,27733	244
48,28800	235
48,29867	242
48,30933	247
48,32000	235
48,33067	229
48,34133	233
48,35200	226
48,36267	236
48,37333	234
48,38400	230
48,39467	223
48,40533	227
48,41600	232
48,42667	230
48,43733	228
48,44800	231
48,45867	232
48,46933	228
48,48000	223
48,49067	227
48,50133	230
48,51200	226
48,52267	230
48,53333	226
48,54400	221
48,55467	228
48,56533	227
48,57600	232
48,58667	233
48,59733	226
48,60800	227
48,61867	221
48,62933	225
48,64000	221
48,65067	228
48,66133	226
48,67200	224
48,68267	223
48,69333	226
48,70400	228
48,71467	224
48,72533	227
48,73600	222
48,74667	222
48,75733	220
48,76800	220
48,77867	222
48,78933	223
48,80000	223
48,81067	221
48,82133	223
48,83200	220
48,84267	213
48,85333	208
48,86400	219
48,87467	215
48,88533	223
48,89600	215
48,90667	213
48,91733	215
48,92800	219
48,93867	211
48,94933	211
48,96000	214
48,97067	221
48,98133	225
48,99200	226
49,00267	223
49,01333	217
49,02400	214
49,03467	214
49,04533	206
49,05600	211
49,06667	208
49,07733	212
49,08800	215
49,09867	215
49,10933	212
49,12000	217
49,13067	218
49,14133	220
49,15200	221
49,16267	212
49,17333	215
49,18400	213
49,19467	203
49,20533	212
49,21600	212
49,22667	216
49,23733	214
49,24800	215
49,25867	220
49,26933	222
49,28000	211
49,29067	220
49,30133	222
49,31200	219
49,32267	216
49,33333	218
49,34400	221
49,35467	225
49,36533	232
49,37600	225
49,38667	218
49,39733	213
49,40800	226
49,41867	221
49,42933	220
49,44000	218
49,45067	222
49,46133	214
49,47200	212
49,48267	215
49,49333	211
49,50400	219
49,51467	223
49,52533	220
49,53600	217
49,54667	221
49,55733	221
49,56800	222
49,57867	215
49,58933	215
49,60000	218
49,61067	224
49,62133	219
49,63200	220
49,64267	211
49,65333	209
49,66400	211
49,67467	218
49,68533	217
49,69600	213
49,70667	215
49,71733	218
49,72800	214
49,73867	212
49,74933	209
49,76000	213
49,77067	211
49,78133	205
49,79200	199
49,80267	212
49,81333	208
49,82400	205
49,83467	211
49,84533	207
49,85600	206
49,86667	205
49,87733	211
49,88800	202
49,89867	204
49,90933	204
49,92000	198
49,93067	186
49,94133	200
49,95200	199
49,96267	198
49,97333	206
49,98400	206
49,99467	202
50,00533	196


