[Header]
Application Name	LabSolutions
Version	5.73
Data File Name	C:\Users\Public\DADOS\Ricardo borges\RMBorges\26.02.25\KAEMPFEID.lcd
Output Date	26/02/2025
Output Time	17:48:40

[File Information]
Type	Data File
Generated	26/02/2025 16:58:12
Generated by	System Administrator
Modified	26/02/2025 17:48:40
Modified by	System Administrator

[Sample Information]
Operator Name	System Administrator
Acquired	26/02/2025 16:58:38
Sample Type	0:Unknown
Level	0
Sample Name	KAEMPFEID
Sample ID	KAEMPFEID
ISTD Amount1	1
ISTD Amount2	1
ISTD Amount3	1
ISTD Amount4	1
ISTD Amount5	1
ISTD Amount6	1
ISTD Amount7	1
ISTD Amount8	1
ISTD Amount9	1
ISTD Amount10	1
ISTD Amount11	1
ISTD Amount12	1
ISTD Amount13	1
ISTD Amount14	1
ISTD Amount15	1
ISTD Amount16	1
ISTD Amount17	1
ISTD Amount18	1
ISTD Amount19	1
ISTD Amount20	1
ISTD Amount21	1
ISTD Amount22	1
ISTD Amount23	1
ISTD Amount24	1
ISTD Amount25	1
ISTD Amount26	1
ISTD Amount27	1
ISTD Amount28	1
ISTD Amount29	1
ISTD Amount30	1
ISTD Amount31	1
ISTD Amount32	1
Sample Amount	1
Dilution Factor	1
Vial#	6
Injection Volume	10

[Original Files]
Data File	C:\Users\Public\DADOS\Ricardo borges\RMBorges\26.02.25\KAEMPFEID.lcd
Method File	C:\Users\Public\MÉTODOS\MÉTODOS HPLC AUTOMÁTICO\RICARDO BORGES\RMBorges\sciffee\experimental 1 - pool.lcm
Batch File	C:\Users\Public\DADOS\Ricardo borges\RMBorges\26.02.25\BATCH_RM_MIX POOL_26.02.2025.lcb
Report Format File	C:\LabSolutions\System\Default.lsr

[File Description]


[Configuration]
Instrument Name	HPLC analítico (automático)
Instrument #	1
Line #	1
# of Detectors	1
Detector ID	PDA
Detector Name	PDA
# of Channels	1

[Peak Table(PDA-Ch1)]
# of Peaks	28
Peak#	R.Time	I.Time	F.Time	Area	Height	A/H	Conc.	Mark	ID#	Name	k'	Plate #	Plate Ht.	Tailing	Resolution	Sep.Factor	Area Ratio	Height Ratio	Conc. %	Norm Conc.
1	1,668	1,493	1,835	105511	17268	6,110	0,000	   			0,000	1625	92,332	1,010	0,000	0,000	0	0	0,000	0,000
2	9,723	9,483	9,952	5590	477	11,713	0,000	   			4,828	14878	10,082	1,013	33,255	0,000	0	0	0,000	0,000
3	19,827	19,499	20,085	10572	913	11,584	0,000	   			10,884	65825	2,279	1,015	32,180	2,254	0	0	0,000	0,000
4	20,320	20,117	20,480	2487	257	9,686	0,000	   			11,180	96167	1,560	0,979	1,726	1,027	0	0	0,000	0,000
5	21,728	21,344	21,941	3075	202	15,233	0,000	   			12,024	56128	2,672	0,000	4,478	1,075	0	0	0,000	0,000
6	22,221	21,941	22,581	281419	26109	10,779	0,000	 V 			12,319	91391	1,641	1,091	1,492	1,025	0	0	0,000	0,000
7	23,362	23,136	23,520	2289	209	10,937	0,000	   			13,003	90112	1,665	0,907	3,770	1,056	0	0	0,000	0,000
8	25,333	24,832	25,600	41928	3840	10,918	0,000	   			14,185	120373	1,246	1,090	6,533	1,091	0	0	0,000	0,000
9	26,994	25,600	27,211	12156	725	16,764	0,000	 V 			15,180	106336	1,411	0,630	5,329	1,070	0	0	0,000	0,000
10	28,545	28,352	28,683	3549	377	9,416	0,000	   			16,110	196747	0,762	0,898	5,272	1,061	0	0	0,000	0,000
11	30,169	29,216	30,720	13307385	1285457	10,352	0,000	   			17,084	182051	0,824	1,190	6,014	1,060	0	0	0,000	0,000
12	30,922	30,720	31,029	49977	4303	11,614	0,000	 V 			17,535	113937	1,317	0,000	2,318	1,026	0	0	0,000	0,000
13	31,192	31,029	31,435	178569	16855	10,594	0,000	 V 			17,696	184928	0,811	0,000	0,821	1,009	0	0	0,000	0,000
14	31,557	31,435	31,669	12772	1193	10,701	0,000	 V 			17,915	98244	1,527	0,000	1,054	1,012	0	0	0,000	0,000
15	31,785	31,669	32,021	10687	951	11,237	0,000	 V 			18,052	101587	1,477	0,000	0,570	1,008	0	0	0,000	0,000
16	33,013	32,864	33,067	5630	585	9,628	0,000	   			18,788	502427	0,299	0,684	4,198	1,041	0	0	0,000	0,000
17	34,328	33,131	34,432	305892	38936	7,856	0,000	   			19,576	807358	0,186	0,000	7,751	1,042	0	0	0,000	0,000
18	34,793	34,432	34,901	235442	19879	11,844	0,000	 V 			19,855	545091	0,275	0,000	2,724	1,014	0	0	0,000	0,000
19	35,072	34,901	35,413	988636	118607	8,335	0,000	 V 			20,022	653284	0,230	0,000	1,542	1,008	0	0	0,000	0,000
20	35,486	35,413	35,563	154805	21399	7,234	0,000	 V 			20,270	164131	0,914	0,000	1,582	1,012	0	0	0,000	0,000
21	35,594	35,563	35,733	123394	15647	7,886	0,000	 V 			20,335	47722	3,143	0,000	0,216	1,003	0	0	0,000	0,000
22	35,851	35,733	35,979	142881	11352	12,586	0,000	 V 			20,489	42149	3,559	0,000	0,380	1,008	0	0	0,000	0,000
23	36,032	35,979	36,085	48291	7698	6,273	0,000	 V 			20,598	0	0,000	0,000	0,000	1,005	0	0	0,000	0,000
24	36,335	36,085	36,480	163239	8073	20,221	0,000	 V 			20,779	8116	18,481	0,000	0,000	1,009	0	0	0,000	0,000
25	36,787	36,480	36,885	96808	3745	25,853	0,000	 V 			21,050	0	0,000	0,000	0,000	1,013	0	0	0,000	0,000
26	37,035	36,885	37,141	35040	2994	11,704	0,000	 V 			21,199	120792	1,242	0,000	0,000	1,007	0	0	0,000	0,000
27	37,226	37,141	37,323	8671	1142	7,592	0,000	 V 			21,314	36923	4,063	0,000	0,319	1,005	0	0	0,000	0,000
28	38,911	37,600	40,053	2595843	54819	47,353	0,000	   			22,323	162774	0,922	0,912	2,903	1,047	0	0	0,000	0,000

[Compound Results(PDA)]
# of IDs	0

[PDA Multi Chromatogram(Ch1)]
# of Points	      4689
Interval(msec)	640
Start Time(min)	0
End Time(min)	50,0053
Intensity Units	mAU
Intensity Multiplier	1
Type	MultiChrom
Wavelength(nm)	254
Bandwidth(nm)	4
R.Time (min)	Intensity
0,00000	0
0,01067	0
0,02133	0
0,03200	0
0,04267	0
0,05333	0
0,06400	0
0,07467	0
0,08533	0
0,09600	0
0,10667	0
0,11733	-3
0,12800	2
0,13867	2
0,14933	7
0,16000	0
0,17067	2
0,18133	-5
0,19200	-3
0,20267	4
0,21333	-7
0,22400	-1
0,23467	-3
0,24533	-4
0,25600	-7
0,26667	-5
0,27733	-6
0,28800	-4
0,29867	-2
0,30933	0
0,32000	-7
0,33067	-8
0,34133	-5
0,35200	1
0,36267	4
0,37333	-6
0,38400	-9
0,39467	1
0,40533	-3
0,41600	-12
0,42667	-14
0,43733	-4
0,44800	-11
0,45867	-13
0,46933	-6
0,48000	-10
0,49067	-11
0,50133	-12
0,51200	-17
0,52267	-8
0,53333	-11
0,54400	-19
0,55467	-18
0,56533	-16
0,57600	-9
0,58667	-9
0,59733	-12
0,60800	-21
0,61867	-16
0,62933	-18
0,64000	-17
0,65067	-17
0,66133	-16
0,67200	-15
0,68267	-14
0,69333	-19
0,70400	-19
0,71467	-17
0,72533	-19
0,73600	-19
0,74667	-12
0,75733	-2
0,76800	-16
0,77867	-19
0,78933	-8
0,80000	-9
0,81067	-12
0,82133	-14
0,83200	-7
0,84267	-14
0,85333	-11
0,86400	-12
0,87467	-18
0,88533	-11
0,89600	-2
0,90667	-8
0,91733	-11
0,92800	-4
0,93867	-9
0,94933	-13
0,96000	-12
0,97067	-14
0,98133	-16
0,99200	-15
1,00267	-8
1,01333	-11
1,02400	-14
1,03467	-8
1,04533	-6
1,05600	-6
1,06667	-8
1,07733	-13
1,08800	-14
1,09867	-15
1,10933	-6
1,12000	-12
1,13067	-14
1,14133	-8
1,15200	-1
1,16267	-9
1,17333	-2
1,18400	-3
1,19467	-6
1,20533	-11
1,21600	-15
1,22667	-10
1,23733	-12
1,24800	-6
1,25867	-10
1,26933	-6
1,28000	-2
1,29067	0
1,30133	-1
1,31200	-8
1,32267	-8
1,33333	-3
1,34400	-2
1,35467	-10
1,36533	-8
1,37600	-6
1,38667	-9
1,39733	-7
1,40800	-6
1,41867	-1
1,42933	5
1,44000	0
1,45067	4
1,46133	10
1,47200	3
1,48267	-2
1,49333	0
1,50400	5
1,51467	5
1,52533	10
1,53600	15
1,54667	37
1,55733	66
1,56800	99
1,57867	129
1,58933	141
1,60000	140
1,61067	132
1,62133	124
1,63200	778
1,64267	5099
1,65333	10925
1,66400	13375
1,67467	13121
1,68533	11671
1,69600	9903
1,70667	8093
1,71733	6097
1,72800	3970
1,73867	1822
1,74933	-188
1,76000	-1998
1,77067	-3452
1,78133	-4490
1,79200	-5172
1,80267	-5785
1,81333	-6515
1,82400	-7204
1,83467	-7594
1,84533	-7563
1,85600	-7093
1,86667	-6265
1,87733	-5197
1,88800	-4071
1,89867	-3013
1,90933	-2130
1,92000	-1442
1,93067	-937
1,94133	-598
1,95200	-372
1,96267	-221
1,97333	-134
1,98400	-77
1,99467	-46
2,00533	-24
2,01600	-15
2,02667	-8
2,03733	-8
2,04800	-9
2,05867	-10
2,06933	-12
2,08000	-9
2,09067	-9
2,10133	-8
2,11200	-2
2,12267	-3
2,13333	-0
2,14400	-0
2,15467	-6
2,16533	-11
2,17600	-16
2,18667	-9
2,19733	-6
2,20800	-10
2,21867	-4
2,22933	-11
2,24000	-1
2,25067	-2
2,26133	5
2,27200	6
2,28267	2
2,29333	-9
2,30400	1
2,31467	-5
2,32533	7
2,33600	9
2,34667	5
2,35733	7
2,36800	8
2,37867	6
2,38933	7
2,40000	9
2,41067	8
2,42133	6
2,43200	-2
2,44267	2
2,45333	2
2,46400	3
2,47467	2
2,48533	0
2,49600	-2
2,50667	9
2,51733	4
2,52800	7
2,53867	6
2,54933	4
2,56000	-0
2,57067	-2
2,58133	5
2,59200	1
2,60267	9
2,61333	8
2,62400	2
2,63467	-9
2,64533	-31
2,65600	-71
2,66667	-141
2,67733	-226
2,68800	-320
2,69867	-401
2,70933	-468
2,72000	-515
2,73067	-536
2,74133	-537
2,75200	-505
2,76267	-466
2,77333	-401
2,78400	-345
2,79467	-282
2,80533	-219
2,81600	-161
2,82667	-114
2,83733	-73
2,84800	-53
2,85867	-44
2,86933	-28
2,88000	-17
2,89067	-5
2,90133	9
2,91200	3
2,92267	5
2,93333	8
2,94400	5
2,95467	2
2,96533	3
2,97600	8
2,98667	11
2,99733	10
3,00800	16
3,01867	22
3,02933	20
3,04000	21
3,05067	20
3,06133	27
3,07200	37
3,08267	36
3,09333	40
3,10400	36
3,11467	35
3,12533	32
3,13600	37
3,14667	45
3,15733	43
3,16800	30
3,17867	27
3,18933	30
3,20000	25
3,21067	26
3,22133	25
3,23200	20
3,24267	21
3,25333	17
3,26400	13
3,27467	15
3,28533	21
3,29600	12
3,30667	9
3,31733	9
3,32800	6
3,33867	4
3,34933	3
3,36000	3
3,37067	2
3,38133	1
3,39200	3
3,40267	-2
3,41333	3
3,42400	8
3,43467	17
3,44533	24
3,45600	34
3,46667	52
3,47733	69
3,48800	75
3,49867	67
3,50933	52
3,52000	27
3,53067	-1
3,54133	-13
3,55200	-23
3,56267	-30
3,57333	-33
3,58400	-44
3,59467	-43
3,60533	-40
3,61600	-34
3,62667	-34
3,63733	-24
3,64800	-27
3,65867	-24
3,66933	-14
3,68000	-9
3,69067	-4
3,70133	14
3,71200	18
3,72267	20
3,73333	21
3,74400	23
3,75467	35
3,76533	39
3,77600	42
3,78667	37
3,79733	45
3,80800	40
3,81867	39
3,82933	39
3,84000	37
3,85067	35
3,86133	38
3,87200	41
3,88267	39
3,89333	41
3,90400	39
3,91467	37
3,92533	38
3,93600	40
3,94667	39
3,95733	39
3,96800	45
3,97867	40
3,98933	36
4,00000	42
4,01067	47
4,02133	48
4,03200	49
4,04267	41
4,05333	35
4,06400	41
4,07467	46
4,08533	47
4,09600	48
4,10667	48
4,11733	48
4,12800	50
4,13867	51
4,14933	45
4,16000	42
4,17067	47
4,18133	45
4,19200	43
4,20267	42
4,21333	44
4,22400	45
4,23467	40
4,24533	41
4,25600	41
4,26667	40
4,27733	35
4,28800	41
4,29867	39
4,30933	36
4,32000	35
4,33067	34
4,34133	34
4,35200	40
4,36267	36
4,37333	31
4,38400	34
4,39467	37
4,40533	36
4,41600	31
4,42667	29
4,43733	26
4,44800	33
4,45867	32
4,46933	26
4,48000	30
4,49067	36
4,50133	42
4,51200	40
4,52267	42
4,53333	40
4,54400	47
4,55467	45
4,56533	39
4,57600	40
4,58667	46
4,59733	47
4,60800	46
4,61867	53
4,62933	61
4,64000	65
4,65067	64
4,66133	67
4,67200	69
4,68267	73
4,69333	71
4,70400	74
4,71467	71
4,72533	76
4,73600	74
4,74667	77
4,75733	84
4,76800	87
4,77867	87
4,78933	103
4,80000	104
4,81067	101
4,82133	92
4,83200	94
4,84267	107
4,85333	118
4,86400	106
4,87467	109
4,88533	109
4,89600	113
4,90667	115
4,91733	119
4,92800	126
4,93867	114
4,94933	117
4,96000	125
4,97067	126
4,98133	121
4,99200	129
5,00267	143
5,01333	141
5,02400	144
5,03467	146
5,04533	142
5,05600	147
5,06667	145
5,07733	156
5,08800	154
5,09867	156
5,10933	163
5,12000	165
5,13067	167
5,14133	176
5,15200	178
5,16267	182
5,17333	188
5,18400	190
5,19467	193
5,20533	194
5,21600	203
5,22667	206
5,23733	213
5,24800	215
5,25867	220
5,26933	224
5,28000	222
5,29067	222
5,30133	226
5,31200	227
5,32267	239
5,33333	247
5,34400	254
5,35467	263
5,36533	255
5,37600	258
5,38667	259
5,39733	260
5,40800	262
5,41867	270
5,42933	275
5,44000	276
5,45067	283
5,46133	288
5,47200	291
5,48267	288
5,49333	288
5,50400	298
5,51467	299
5,52533	309
5,53600	304
5,54667	302
5,55733	302
5,56800	323
5,57867	317
5,58933	310
5,60000	318
5,61067	316
5,62133	324
5,63200	321
5,64267	327
5,65333	332
5,66400	332
5,67467	337
5,68533	341
5,69600	334
5,70667	345
5,71733	343
5,72800	345
5,73867	348
5,74933	353
5,76000	350
5,77067	359
5,78133	362
5,79200	361
5,80267	368
5,81333	370
5,82400	371
5,83467	377
5,84533	384
5,85600	388
5,86667	381
5,87733	380
5,88800	384
5,89867	390
5,90933	387
5,92000	388
5,93067	390
5,94133	396
5,95200	398
5,96267	398
5,97333	399
5,98400	401
5,99467	403
6,00533	401
6,01600	406
6,02667	410
6,03733	416
6,04800	413
6,05867	413
6,06933	423
6,08000	429
6,09067	432
6,10133	435
6,11200	444
6,12267	449
6,13333	449
6,14400	453
6,15467	457
6,16533	465
6,17600	457
6,18667	462
6,19733	459
6,20800	469
6,21867	470
6,22933	482
6,24000	477
6,25067	477
6,26133	473
6,27200	479
6,28267	482
6,29333	481
6,30400	483
6,31467	486
6,32533	485
6,33600	493
6,34667	493
6,35733	505
6,36800	508
6,37867	509
6,38933	510
6,40000	521
6,41067	523
6,42133	527
6,43200	532
6,44267	531
6,45333	541
6,46400	540
6,47467	548
6,48533	547
6,49600	548
6,50667	548
6,51733	546
6,52800	544
6,53867	553
6,54933	552
6,56000	544
6,57067	548
6,58133	555
6,59200	555
6,60267	561
6,61333	561
6,62400	565
6,63467	573
6,64533	562
6,65600	564
6,66667	567
6,67733	576
6,68800	585
6,69867	577
6,70933	568
6,72000	577
6,73067	587
6,74133	584
6,75200	597
6,76267	600
6,77333	589
6,78400	598
6,79467	596
6,80533	602
6,81600	601
6,82667	601
6,83733	610
6,84800	615
6,85867	617
6,86933	619
6,88000	615
6,89067	615
6,90133	627
6,91200	633
6,92267	629
6,93333	630
6,94400	636
6,95467	643
6,96533	647
6,97600	649
6,98667	642
6,99733	648
7,00800	653
7,01867	658
7,02933	663
7,04000	660
7,05067	665
7,06133	665
7,07200	670
7,08267	674
7,09333	678
7,10400	688
7,11467	691
7,12533	687
7,13600	698
7,14667	693
7,15733	692
7,16800	695
7,17867	702
7,18933	700
7,20000	707
7,21067	705
7,22133	706
7,23200	712
7,24267	717
7,25333	720
7,26400	722
7,27467	721
7,28533	727
7,29600	736
7,30667	730
7,31733	728
7,32800	732
7,33867	731
7,34933	734
7,36000	734
7,37067	734
7,38133	743
7,39200	751
7,40267	744
7,41333	748
7,42400	750
7,43467	762
7,44533	766
7,45600	766
7,46667	766
7,47733	761
7,48800	770
7,49867	770
7,50933	780
7,52000	775
7,53067	774
7,54133	789
7,55200	782
7,56267	781
7,57333	790
7,58400	797
7,59467	802
7,60533	806
7,61600	802
7,62667	805
7,63733	808
7,64800	812
7,65867	822
7,66933	823
7,68000	828
7,69067	826
7,70133	834
7,71200	836
7,72267	839
7,73333	836
7,74400	837
7,75467	848
7,76533	843
7,77600	845
7,78667	856
7,79733	858
7,80800	859
7,81867	863
7,82933	869
7,84000	869
7,85067	870
7,86133	872
7,87200	877
7,88267	881
7,89333	890
7,90400	888
7,91467	888
7,92533	884
7,93600	894
7,94667	897
7,95733	902
7,96800	907
7,97867	904
7,98933	910
8,00000	905
8,01067	906
8,02133	903
8,03200	914
8,04267	917
8,05333	909
8,06400	918
8,07467	923
8,08533	920
8,09600	924
8,10667	932
8,11733	934
8,12800	935
8,13867	940
8,14933	947
8,16000	948
8,17067	950
8,18133	952
8,19200	962
8,20267	955
8,21333	961
8,22400	959
8,23467	962
8,24533	967
8,25600	970
8,26667	973
8,27733	975
8,28800	979
8,29867	978
8,30933	977
8,32000	985
8,33067	985
8,34133	992
8,35200	999
8,36267	1000
8,37333	1000
8,38400	1009
8,39467	1006
8,40533	1006
8,41600	1009
8,42667	1017
8,43733	1022
8,44800	1025
8,45867	1020
8,46933	1027
8,48000	1030
8,49067	1034
8,50133	1043
8,51200	1041
8,52267	1038
8,53333	1046
8,54400	1042
8,55467	1049
8,56533	1047
8,57600	1051
8,58667	1064
8,59733	1068
8,60800	1072
8,61867	1071
8,62933	1069
8,64000	1076
8,65067	1081
8,66133	1082
8,67200	1087
8,68267	1083
8,69333	1090
8,70400	1096
8,71467	1100
8,72533	1111
8,73600	1112
8,74667	1118
8,75733	1116
8,76800	1122
8,77867	1120
8,78933	1117
8,80000	1123
8,81067	1122
8,82133	1129
8,83200	1130
8,84267	1131
8,85333	1130
8,86400	1130
8,87467	1140
8,88533	1140
8,89600	1142
8,90667	1149
8,91733	1155
8,92800	1157
8,93867	1159
8,94933	1163
8,96000	1163
8,97067	1173
8,98133	1173
8,99200	1176
9,00267	1182
9,01333	1183
9,02400	1177
9,03467	1182
9,04533	1186
9,05600	1197
9,06667	1197
9,07733	1203
9,08800	1200
9,09867	1202
9,10933	1209
9,12000	1218
9,13067	1221
9,14133	1219
9,15200	1214
9,16267	1220
9,17333	1220
9,18400	1222
9,19467	1222
9,20533	1228
9,21600	1227
9,22667	1233
9,23733	1233
9,24800	1238
9,25867	1241
9,26933	1246
9,28000	1247
9,29067	1243
9,30133	1248
9,31200	1246
9,32267	1253
9,33333	1256
9,34400	1257
9,35467	1261
9,36533	1272
9,37600	1264
9,38667	1271
9,39733	1270
9,40800	1275
9,41867	1282
9,42933	1284
9,44000	1285
9,45067	1288
9,46133	1297
9,47200	1307
9,48267	1301
9,49333	1317
9,50400	1323
9,51467	1322
9,52533	1325
9,53600	1342
9,54667	1363
9,55733	1381
9,56800	1392
9,57867	1420
9,58933	1454
9,60000	1486
9,61067	1524
9,62133	1560
9,63200	1608
9,64267	1654
9,65333	1702
9,66400	1741
9,67467	1784
9,68533	1810
9,69600	1830
9,70667	1847
9,71733	1851
9,72800	1852
9,73867	1839
9,74933	1814
9,76000	1788
9,77067	1759
9,78133	1719
9,79200	1692
9,80267	1661
9,81333	1622
9,82400	1580
9,83467	1554
9,84533	1529
9,85600	1511
9,86667	1492
9,87733	1484
9,88800	1473
9,89867	1467
9,90933	1461
9,92000	1455
9,93067	1457
9,94133	1449
9,95200	1445
9,96267	1448
9,97333	1455
9,98400	1460
9,99467	1456
10,00533	1465
10,01600	1468
10,02667	1471
10,03733	1469
10,04800	1477
10,05867	1484
10,06933	1480
10,08000	1481
10,09067	1487
10,10133	1482
10,11200	1492
10,12267	1489
10,13333	1493
10,14400	1504
10,15467	1499
10,16533	1508
10,17600	1504
10,18667	1507
10,19733	1512
10,20800	1513
10,21867	1520
10,22933	1526
10,24000	1537
10,25067	1535
10,26133	1541
10,27200	1544
10,28267	1543
10,29333	1550
10,30400	1548
10,31467	1549
10,32533	1555
10,33600	1563
10,34667	1569
10,35733	1568
10,36800	1561
10,37867	1569
10,38933	1578
10,40000	1575
10,41067	1580
10,42133	1585
10,43200	1594
10,44267	1596
10,45333	1599
10,46400	1610
10,47467	1608
10,48533	1609
10,49600	1610
10,50667	1617
10,51733	1626
10,52800	1626
10,53867	1628
10,54933	1629
10,56000	1631
10,57067	1636
10,58133	1640
10,59200	1643
10,60267	1648
10,61333	1653
10,62400	1647
10,63467	1655
10,64533	1662
10,65600	1669
10,66667	1682
10,67733	1682
10,68800	1684
10,69867	1688
10,70933	1686
10,72000	1686
10,73067	1689
10,74133	1706
10,75200	1697
10,76267	1698
10,77333	1704
10,78400	1699
10,79467	1705
10,80533	1721
10,81600	1721
10,82667	1720
10,83733	1715
10,84800	1724
10,85867	1733
10,86933	1740
10,88000	1739
10,89067	1744
10,90133	1747
10,91200	1751
10,92267	1746
10,93333	1752
10,94400	1765
10,95467	1766
10,96533	1766
10,97600	1766
10,98667	1773
10,99733	1769
11,00800	1775
11,01867	1784
11,02933	1781
11,04000	1786
11,05067	1787
11,06133	1790
11,07200	1795
11,08267	1803
11,09333	1803
11,10400	1801
11,11467	1804
11,12533	1813
11,13600	1820
11,14667	1826
11,15733	1826
11,16800	1829
11,17867	1829
11,18933	1836
11,20000	1826
11,21067	1832
11,22133	1835
11,23200	1843
11,24267	1842
11,25333	1847
11,26400	1847
11,27467	1846
11,28533	1849
11,29600	1863
11,30667	1861
11,31733	1873
11,32800	1875
11,33867	1882
11,34933	1882
11,36000	1892
11,37067	1905
11,38133	1904
11,39200	1901
11,40267	1901
11,41333	1909
11,42400	1916
11,43467	1913
11,44533	1916
11,45600	1918
11,46667	1924
11,47733	1926
11,48800	1925
11,49867	1926
11,50933	1935
11,52000	1932
11,53067	1939
11,54133	1941
11,55200	1953
11,56267	1954
11,57333	1957
11,58400	1962
11,59467	1969
11,60533	1975
11,61600	1972
11,62667	1976
11,63733	1972
11,64800	1976
11,65867	1982
11,66933	1987
11,68000	1997
11,69067	1994
11,70133	1993
11,71200	1995
11,72267	1996
11,73333	2001
11,74400	2005
11,75467	2013
11,76533	2018
11,77600	2016
11,78667	2028
11,79733	2029
11,80800	2037
11,81867	2042
11,82933	2047
11,84000	2045
11,85067	2049
11,86133	2056
11,87200	2059
11,88267	2060
11,89333	2058
11,90400	2064
11,91467	2067
11,92533	2082
11,93600	2081
11,94667	2081
11,95733	2092
11,96800	2092
11,97867	2089
11,98933	2098
12,00000	2099
12,01067	2104
12,02133	2110
12,03200	2112
12,04267	2119
12,05333	2119
12,06400	2120
12,07467	2132
12,08533	2135
12,09600	2142
12,10667	2145
12,11733	2149
12,12800	2146
12,13867	2147
12,14933	2156
12,16000	2154
12,17067	2168
12,18133	2168
12,19200	2173
12,20267	2174
12,21333	2176
12,22400	2183
12,23467	2184
12,24533	2188
12,25600	2195
12,26667	2194
12,27733	2206
12,28800	2205
12,29867	2207
12,30933	2218
12,32000	2217
12,33067	2218
12,34133	2220
12,35200	2220
12,36267	2225
12,37333	2231
12,38400	2233
12,39467	2232
12,40533	2240
12,41600	2249
12,42667	2248
12,43733	2251
12,44800	2261
12,45867	2263
12,46933	2265
12,48000	2275
12,49067	2267
12,50133	2281
12,51200	2280
12,52267	2283
12,53333	2287
12,54400	2292
12,55467	2296
12,56533	2303
12,57600	2310
12,58667	2308
12,59733	2307
12,60800	2314
12,61867	2328
12,62933	2336
12,64000	2337
12,65067	2335
12,66133	2336
12,67200	2337
12,68267	2337
12,69333	2339
12,70400	2337
12,71467	2345
12,72533	2346
12,73600	2345
12,74667	2354
12,75733	2352
12,76800	2349
12,77867	2360
12,78933	2364
12,80000	2365
12,81067	2372
12,82133	2374
12,83200	2374
12,84267	2379
12,85333	2395
12,86400	2390
12,87467	2395
12,88533	2396
12,89600	2403
12,90667	2406
12,91733	2419
12,92800	2414
12,93867	2417
12,94933	2422
12,96000	2426
12,97067	2426
12,98133	2431
12,99200	2436
13,00267	2448
13,01333	2452
13,02400	2458
13,03467	2460
13,04533	2468
13,05600	2472
13,06667	2473
13,07733	2483
13,08800	2479
13,09867	2477
13,10933	2479
13,12000	2482
13,13067	2489
13,14133	2504
13,15200	2493
13,16267	2501
13,17333	2499
13,18400	2498
13,19467	2518
13,20533	2527
13,21600	2528
13,22667	2529
13,23733	2536
13,24800	2539
13,25867	2541
13,26933	2547
13,28000	2548
13,29067	2549
13,30133	2553
13,31200	2558
13,32267	2561
13,33333	2563
13,34400	2574
13,35467	2582
13,36533	2578
13,37600	2581
13,38667	2583
13,39733	2588
13,40800	2590
13,41867	2591
13,42933	2594
13,44000	2604
13,45067	2605
13,46133	2613
13,47200	2612
13,48267	2613
13,49333	2617
13,50400	2626
13,51467	2625
13,52533	2630
13,53600	2638
13,54667	2642
13,55733	2649
13,56800	2653
13,57867	2646
13,58933	2652
13,60000	2659
13,61067	2663
13,62133	2671
13,63200	2684
13,64267	2687
13,65333	2691
13,66400	2691
13,67467	2701
13,68533	2698
13,69600	2701
13,70667	2702
13,71733	2705
13,72800	2705
13,73867	2713
13,74933	2718
13,76000	2723
13,77067	2733
13,78133	2736
13,79200	2741
13,80267	2743
13,81333	2745
13,82400	2748
13,83467	2746
13,84533	2760
13,85600	2761
13,86667	2770
13,87733	2778
13,88800	2779
13,89867	2788
13,90933	2793
13,92000	2795
13,93067	2799
13,94133	2800
13,95200	2809
13,96267	2808
13,97333	2812
13,98400	2821
13,99467	2824
14,00533	2824
14,01600	2831
14,02667	2831
14,03733	2840
14,04800	2845
14,05867	2845
14,06933	2858
14,08000	2857
14,09067	2860
14,10133	2864
14,11200	2877
14,12267	2878
14,13333	2878
14,14400	2885
14,15467	2886
14,16533	2894
14,17600	2894
14,18667	2902
14,19733	2903
14,20800	2914
14,21867	2921
14,22933	2916
14,24000	2929
14,25067	2938
14,26133	2933
14,27200	2937
14,28267	2939
14,29333	2951
14,30400	2959
14,31467	2959
14,32533	2961
14,33600	2967
14,34667	2971
14,35733	2975
14,36800	2984
14,37867	2988
14,38933	2994
14,40000	2997
14,41067	2992
14,42133	2998
14,43200	3008
14,44267	3010
14,45333	3030
14,46400	3025
14,47467	3027
14,48533	3031
14,49600	3046
14,50667	3062
14,51733	3074
14,52800	3084
14,53867	3106
14,54933	3118
14,56000	3133
14,57067	3158
14,58133	3164
14,59200	3176
14,60267	3183
14,61333	3191
14,62400	3203
14,63467	3208
14,64533	3207
14,65600	3210
14,66667	3204
14,67733	3201
14,68800	3196
14,69867	3195
14,70933	3195
14,72000	3177
14,73067	3183
14,74133	3186
14,75200	3183
14,76267	3182
14,77333	3190
14,78400	3190
14,79467	3191
14,80533	3193
14,81600	3202
14,82667	3199
14,83733	3200
14,84800	3202
14,85867	3216
14,86933	3222
14,88000	3231
14,89067	3228
14,90133	3233
14,91200	3238
14,92267	3243
14,93333	3250
14,94400	3251
14,95467	3261
14,96533	3264
14,97600	3262
14,98667	3269
14,99733	3274
15,00800	3276
15,01867	3280
15,02933	3282
15,04000	3286
15,05067	3297
15,06133	3295
15,07200	3306
15,08267	3311
15,09333	3317
15,10400	3321
15,11467	3322
15,12533	3327
15,13600	3333
15,14667	3335
15,15733	3339
15,16800	3344
15,17867	3354
15,18933	3350
15,20000	3364
15,21067	3370
15,22133	3378
15,23200	3375
15,24267	3378
15,25333	3385
15,26400	3385
15,27467	3390
15,28533	3399
15,29600	3401
15,30667	3419
15,31733	3427
15,32800	3424
15,33867	3421
15,34933	3425
15,36000	3432
15,37067	3430
15,38133	3433
15,39200	3442
15,40267	3441
15,41333	3440
15,42400	3446
15,43467	3456
15,44533	3458
15,45600	3460
15,46667	3467
15,47733	3475
15,48800	3483
15,49867	3487
15,50933	3488
15,52000	3497
15,53067	3503
15,54133	3512
15,55200	3505
15,56267	3519
15,57333	3520
15,58400	3522
15,59467	3523
15,60533	3536
15,61600	3543
15,62667	3546
15,63733	3546
15,64800	3551
15,65867	3562
15,66933	3562
15,68000	3557
15,69067	3562
15,70133	3575
15,71200	3572
15,72267	3573
15,73333	3579
15,74400	3583
15,75467	3591
15,76533	3591
15,77600	3597
15,78667	3605
15,79733	3610
15,80800	3617
15,81867	3621
15,82933	3624
15,84000	3633
15,85067	3636
15,86133	3639
15,87200	3646
15,88267	3654
15,89333	3656
15,90400	3661
15,91467	3660
15,92533	3664
15,93600	3672
15,94667	3674
15,95733	3685
15,96800	3681
15,97867	3684
15,98933	3696
16,00000	3700
16,01067	3695
16,02133	3703
16,03200	3706
16,04267	3718
16,05333	3721
16,06400	3726
16,07467	3742
16,08533	3735
16,09600	3735
16,10667	3737
16,11733	3744
16,12800	3744
16,13867	3746
16,14933	3755
16,16000	3755
16,17067	3757
16,18133	3765
16,19200	3776
16,20267	3783
16,21333	3790
16,22400	3786
16,23467	3793
16,24533	3792
16,25600	3797
16,26667	3799
16,27733	3800
16,28800	3809
16,29867	3822
16,30933	3822
16,32000	3820
16,33067	3822
16,34133	3827
16,35200	3836
16,36267	3840
16,37333	3846
16,38400	3843
16,39467	3851
16,40533	3862
16,41600	3861
16,42667	3868
16,43733	3872
16,44800	3874
16,45867	3879
16,46933	3875
16,48000	3887
16,49067	3887
16,50133	3890
16,51200	3894
16,52267	3897
16,53333	3909
16,54400	3913
16,55467	3907
16,56533	3911
16,57600	3916
16,58667	3916
16,59733	3922
16,60800	3935
16,61867	3941
16,62933	3934
16,64000	3943
16,65067	3947
16,66133	3954
16,67200	3951
16,68267	3964
16,69333	3965
16,70400	3971
16,71467	3979
16,72533	3986
16,73600	3991
16,74667	3998
16,75733	4003
16,76800	4004
16,77867	4010
16,78933	4016
16,80000	4018
16,81067	4023
16,82133	4034
16,83200	4035
16,84267	4035
16,85333	4035
16,86400	4042
16,87467	4054
16,88533	4057
16,89600	4055
16,90667	4055
16,91733	4061
16,92800	4073
16,93867	4080
16,94933	4085
16,96000	4089
16,97067	4094
16,98133	4099
16,99200	4107
17,00267	4113
17,01333	4114
17,02400	4128
17,03467	4131
17,04533	4133
17,05600	4139
17,06667	4144
17,07733	4149
17,08800	4150
17,09867	4150
17,10933	4159
17,12000	4164
17,13067	4169
17,14133	4177
17,15200	4182
17,16267	4182
17,17333	4192
17,18400	4191
17,19467	4198
17,20533	4207
17,21600	4209
17,22667	4216
17,23733	4217
17,24800	4222
17,25867	4232
17,26933	4230
17,28000	4239
17,29067	4245
17,30133	4256
17,31200	4257
17,32267	4258
17,33333	4262
17,34400	4268
17,35467	4265
17,36533	4271
17,37600	4281
17,38667	4287
17,39733	4283
17,40800	4287
17,41867	4296
17,42933	4306
17,44000	4309
17,45067	4312
17,46133	4311
17,47200	4313
17,48267	4318
17,49333	4325
17,50400	4331
17,51467	4339
17,52533	4343
17,53600	4339
17,54667	4341
17,55733	4353
17,56800	4349
17,57867	4346
17,58933	4358
17,60000	4376
17,61067	4384
17,62133	4392
17,63200	4391
17,64267	4395
17,65333	4401
17,66400	4404
17,67467	4409
17,68533	4409
17,69600	4419
17,70667	4419
17,71733	4432
17,72800	4439
17,73867	4450
17,74933	4452
17,76000	4464
17,77067	4473
17,78133	4480
17,79200	4488
17,80267	4490
17,81333	4504
17,82400	4512
17,83467	4513
17,84533	4520
17,85600	4520
17,86667	4523
17,87733	4524
17,88800	4528
17,89867	4523
17,90933	4523
17,92000	4527
17,93067	4532
17,94133	4534
17,95200	4531
17,96267	4537
17,97333	4534
17,98400	4544
17,99467	4552
18,00533	4550
18,01600	4557
18,02667	4570
18,03733	4567
18,04800	4562
18,05867	4575
18,06933	4587
18,08000	4584
18,09067	4597
18,10133	4596
18,11200	4605
18,12267	4611
18,13333	4611
18,14400	4605
18,15467	4615
18,16533	4632
18,17600	4636
18,18667	4646
18,19733	4647
18,20800	4649
18,21867	4651
18,22933	4657
18,24000	4669
18,25067	4668
18,26133	4678
18,27200	4673
18,28267	4687
18,29333	4691
18,30400	4695
18,31467	4698
18,32533	4709
18,33600	4712
18,34667	4717
18,35733	4721
18,36800	4716
18,37867	4725
18,38933	4734
18,40000	4735
18,41067	4736
18,42133	4737
18,43200	4742
18,44267	4751
18,45333	4757
18,46400	4764
18,47467	4769
18,48533	4772
18,49600	4777
18,50667	4786
18,51733	4793
18,52800	4800
18,53867	4802
18,54933	4801
18,56000	4810
18,57067	4818
18,58133	4825
18,59200	4827
18,60267	4834
18,61333	4837
18,62400	4843
18,63467	4855
18,64533	4856
18,65600	4858
18,66667	4858
18,67733	4868
18,68800	4878
18,69867	4881
18,70933	4879
18,72000	4891
18,73067	4889
18,74133	4894
18,75200	4895
18,76267	4903
18,77333	4904
18,78400	4907
18,79467	4910
18,80533	4915
18,81600	4916
18,82667	4920
18,83733	4929
18,84800	4933
18,85867	4941
18,86933	4949
18,88000	4955
18,89067	4961
18,90133	4969
18,91200	4969
18,92267	4984
18,93333	4986
18,94400	4991
18,95467	4989
18,96533	4991
18,97600	5009
18,98667	5003
18,99733	5013
19,00800	5021
19,01867	5024
19,02933	5030
19,04000	5025
19,05067	5032
19,06133	5045
19,07200	5041
19,08267	5048
19,09333	5055
19,10400	5060
19,11467	5060
19,12533	5067
19,13600	5073
19,14667	5080
19,15733	5082
19,16800	5087
19,17867	5089
19,18933	5095
19,20000	5094
19,21067	5101
19,22133	5097
19,23200	5111
19,24267	5110
19,25333	5110
19,26400	5114
19,27467	5125
19,28533	5130
19,29600	5132
19,30667	5137
19,31733	5139
19,32800	5142
19,33867	5149
19,34933	5154
19,36000	5158
19,37067	5167
19,38133	5165
19,39200	5162
19,40267	5168
19,41333	5179
19,42400	5182
19,43467	5189
19,44533	5195
19,45600	5193
19,46667	5200
19,47733	5204
19,48800	5209
19,49867	5209
19,50933	5219
19,52000	5226
19,53067	5229
19,54133	5240
19,55200	5248
19,56267	5247
19,57333	5258
19,58400	5275
19,59467	5284
19,60533	5292
19,61600	5306
19,62667	5311
19,63733	5330
19,64800	5355
19,65867	5375
19,66933	5404
19,68000	5437
19,69067	5474
19,70133	5521
19,71200	5576
19,72267	5640
19,73333	5717
19,74400	5794
19,75467	5882
19,76533	5963
19,77600	6056
19,78667	6129
19,79733	6187
19,80800	6236
19,81867	6269
19,82933	6271
19,84000	6265
19,85067	6233
19,86133	6186
19,87200	6139
19,88267	6073
19,89333	6005
19,90400	5929
19,91467	5860
19,92533	5795
19,93600	5721
19,94667	5668
19,95733	5627
19,96800	5586
19,97867	5561
19,98933	5542
20,00000	5525
20,01067	5506
20,02133	5508
20,03200	5497
20,04267	5484
20,05333	5480
20,06400	5470
20,07467	5480
20,08533	5476
20,09600	5479
20,10667	5486
20,11733	5491
20,12800	5497
20,13867	5511
20,14933	5512
20,16000	5520
20,17067	5532
20,18133	5548
20,19200	5553
20,20267	5576
20,21333	5609
20,22400	5638
20,23467	5657
20,24533	5696
20,25600	5728
20,26667	5766
20,27733	5791
20,28800	5811
20,29867	5819
20,30933	5842
20,32000	5848
20,33067	5842
20,34133	5840
20,35200	5825
20,36267	5807
20,37333	5787
20,38400	5763
20,39467	5753
20,40533	5737
20,41600	5718
20,42667	5709
20,43733	5692
20,44800	5678
20,45867	5680
20,46933	5675
20,48000	5671
20,49067	5671
20,50133	5677
20,51200	5667
20,52267	5675
20,53333	5683
20,54400	5683
20,55467	5684
20,56533	5691
20,57600	5698
20,58667	5703
20,59733	5703
20,60800	5699
20,61867	5712
20,62933	5713
20,64000	5717
20,65067	5724
20,66133	5726
20,67200	5731
20,68267	5738
20,69333	5741
20,70400	5739
20,71467	5756
20,72533	5760
20,73600	5755
20,74667	5758
20,75733	5761
20,76800	5764
20,77867	5765
20,78933	5770
20,80000	5785
20,81067	5789
20,82133	5794
20,83200	5803
20,84267	5810
20,85333	5812
20,86400	5824
20,87467	5837
20,88533	5849
20,89600	5848
20,90667	5849
20,91733	5857
20,92800	5865
20,93867	5868
20,94933	5870
20,96000	5871
20,97067	5876
20,98133	5884
20,99200	5891
21,00267	5896
21,01333	5903
21,02400	5905
21,03467	5897
21,04533	5908
21,05600	5921
21,06667	5921
21,07733	5924
21,08800	5935
21,09867	5945
21,10933	5942
21,12000	5950
21,13067	5953
21,14133	5960
21,15200	5959
21,16267	5969
21,17333	5975
21,18400	5989
21,19467	5989
21,20533	5991
21,21600	5999
21,22667	6001
21,23733	6004
21,24800	6012
21,25867	6021
21,26933	6031
21,28000	6038
21,29067	6041
21,30133	6046
21,31200	6051
21,32267	6050
21,33333	6056
21,34400	6059
21,35467	6066
21,36533	6080
21,37600	6092
21,38667	6087
21,39733	6093
21,40800	6104
21,41867	6111
21,42933	6116
21,44000	6122
21,45067	6130
21,46133	6138
21,47200	6147
21,48267	6157
21,49333	6156
21,50400	6161
21,51467	6176
21,52533	6186
21,53600	6189
21,54667	6200
21,55733	6206
21,56800	6223
21,57867	6231
21,58933	6246
21,60000	6263
21,61067	6279
21,62133	6295
21,63200	6311
21,64267	6325
21,65333	6347
21,66400	6374
21,67467	6395
21,68533	6415
21,69600	6430
21,70667	6445
21,71733	6456
21,72800	6464
21,73867	6464
21,74933	6467
21,76000	6466
21,77067	6467
21,78133	6461
21,79200	6454
21,80267	6441
21,81333	6439
21,82400	6426
21,83467	6416
21,84533	6422
21,85600	6416
21,86667	6421
21,87733	6419
21,88800	6415
21,89867	6413
21,90933	6426
21,92000	6433
21,93067	6436
21,94133	6440
21,95200	6453
21,96267	6473
21,97333	6504
21,98400	6544
21,99467	6589
22,00533	6676
22,01600	6791
22,02667	6949
22,03733	7181
22,04800	7517
22,05867	7990
22,06933	8647
22,08000	9501
22,09067	10607
22,10133	11994
22,11200	13669
22,12267	15630
22,13333	17845
22,14400	20249
22,15467	22750
22,16533	25229
22,17600	27536
22,18667	29552
22,19733	31140
22,20800	32182
22,21867	32633
22,22933	32458
22,24000	31687
22,25067	30400
22,26133	28679
22,27200	26638
22,28267	24427
22,29333	22152
22,30400	19930
22,31467	17844
22,32533	15939
22,33600	14273
22,34667	12832
22,35733	11615
22,36800	10605
22,37867	9796
22,38933	9148
22,40000	8627
22,41067	8202
22,42133	7877
22,43200	7630
22,44267	7431
22,45333	7264
22,46400	7136
22,47467	7046
22,48533	6960
22,49600	6899
22,50667	6850
22,51733	6816
22,52800	6777
22,53867	6759
22,54933	6745
22,56000	6740
22,57067	6724
22,58133	6715
22,59200	6720
22,60267	6723
22,61333	6728
22,62400	6731
22,63467	6728
22,64533	6736
22,65600	6733
22,66667	6732
22,67733	6743
22,68800	6753
22,69867	6759
22,70933	6759
22,72000	6761
22,73067	6765
22,74133	6765
22,75200	6766
22,76267	6783
22,77333	6791
22,78400	6803
22,79467	6806
22,80533	6812
22,81600	6818
22,82667	6824
22,83733	6829
22,84800	6841
22,85867	6840
22,86933	6846
22,88000	6851
22,89067	6854
22,90133	6854
22,91200	6853
22,92267	6856
22,93333	6848
22,94400	6847
22,95467	6852
22,96533	6850
22,97600	6858
22,98667	6854
22,99733	6865
23,00800	6869
23,01867	6880
23,02933	6878
23,04000	6873
23,05067	6881
23,06133	6883
23,07200	6889
23,08267	6893
23,09333	6899
23,10400	6909
23,11467	6912
23,12533	6918
23,13600	6919
23,14667	6934
23,15733	6941
23,16800	6948
23,17867	6960
23,18933	6973
23,20000	6979
23,21067	6993
23,22133	7002
23,23200	7028
23,24267	7051
23,25333	7073
23,26400	7100
23,27467	7116
23,28533	7137
23,29600	7168
23,30667	7194
23,31733	7215
23,32800	7234
23,33867	7249
23,34933	7261
23,36000	7279
23,37067	7271
23,38133	7267
23,39200	7268
23,40267	7263
23,41333	7255
23,42400	7252
23,43467	7243
23,44533	7233
23,45600	7225
23,46667	7210
23,47733	7199
23,48800	7196
23,49867	7196
23,50933	7189
23,52000	7175
23,53067	7178
23,54133	7178
23,55200	7179
23,56267	7179
23,57333	7178
23,58400	7171
23,59467	7169
23,60533	7172
23,61600	7183
23,62667	7179
23,63733	7187
23,64800	7195
23,65867	7199
23,66933	7195
23,68000	7206
23,69067	7209
23,70133	7221
23,71200	7224
23,72267	7231
23,73333	7234
23,74400	7243
23,75467	7251
23,76533	7263
23,77600	7270
23,78667	7278
23,79733	7287
23,80800	7294
23,81867	7297
23,82933	7293
23,84000	7296
23,85067	7305
23,86133	7300
23,87200	7301
23,88267	7300
23,89333	7306
23,90400	7315
23,91467	7319
23,92533	7325
23,93600	7331
23,94667	7333
23,95733	7341
23,96800	7348
23,97867	7350
23,98933	7358
24,00000	7359
24,01067	7376
24,02133	7380
24,03200	7389
24,04267	7405
24,05333	7420
24,06400	7429
24,07467	7430
24,08533	7443
24,09600	7452
24,10667	7456
24,11733	7472
24,12800	7482
24,13867	7486
24,14933	7505
24,16000	7506
24,17067	7505
24,18133	7516
24,19200	7520
24,20267	7520
24,21333	7531
24,22400	7535
24,23467	7539
24,24533	7538
24,25600	7542
24,26667	7551
24,27733	7559
24,28800	7551
24,29867	7555
24,30933	7566
24,32000	7560
24,33067	7561
24,34133	7565
24,35200	7568
24,36267	7579
24,37333	7580
24,38400	7583
24,39467	7578
24,40533	7588
24,41600	7593
24,42667	7607
24,43733	7611
24,44800	7612
24,45867	7616
24,46933	7627
24,48000	7635
24,49067	7643
24,50133	7650
24,51200	7651
24,52267	7654
24,53333	7663
24,54400	7668
24,55467	7670
24,56533	7671
24,57600	7678
24,58667	7690
24,59733	7696
24,60800	7703
24,61867	7704
24,62933	7714
24,64000	7719
24,65067	7731
24,66133	7736
24,67200	7734
24,68267	7740
24,69333	7743
24,70400	7755
24,71467	7752
24,72533	7770
24,73600	7781
24,74667	7785
24,75733	7788
24,76800	7793
24,77867	7799
24,78933	7810
24,80000	7815
24,81067	7829
24,82133	7834
24,83200	7835
24,84267	7855
24,85333	7866
24,86400	7875
24,87467	7884
24,88533	7902
24,89600	7902
24,90667	7919
24,91733	7928
24,92800	7937
24,93867	7951
24,94933	7963
24,96000	7973
24,97067	7972
24,98133	7980
24,99200	7993
25,00267	7998
25,01333	8009
25,02400	8018
25,03467	8024
25,04533	8031
25,05600	8038
25,06667	8045
25,07733	8055
25,08800	8054
25,09867	8064
25,10933	8085
25,12000	8103
25,13067	8134
25,14133	8162
25,15200	8199
25,16267	8264
25,17333	8339
25,18400	8442
25,19467	8576
25,20533	8749
25,21600	8959
25,22667	9228
25,23733	9528
25,24800	9867
25,25867	10229
25,26933	10612
25,28000	10988
25,29067	11326
25,30133	11618
25,31200	11843
25,32267	11977
25,33333	12024
25,34400	11970
25,35467	11835
25,36533	11624
25,37600	11354
25,38667	11052
25,39733	10727
25,40800	10404
25,41867	10087
25,42933	9799
25,44000	9543
25,45067	9326
25,46133	9137
25,47200	8980
25,48267	8850
25,49333	8742
25,50400	8668
25,51467	8609
25,52533	8554
25,53600	8515
25,54667	8481
25,55733	8459
25,56800	8437
25,57867	8425
25,58933	8423
25,60000	8407
25,61067	8413
25,62133	8420
25,63200	8413
25,64267	8413
25,65333	8403
25,66400	8422
25,67467	8433
25,68533	8436
25,69600	8442
25,70667	8442
25,71733	8434
25,72800	8448
25,73867	8467
25,74933	8464
25,76000	8477
25,77067	8488
25,78133	8499
25,79200	8508
25,80267	8505
25,81333	8513
25,82400	8534
25,83467	8541
25,84533	8554
25,85600	8562
25,86667	8570
25,87733	8581
25,88800	8582
25,89867	8592
25,90933	8602
25,92000	8614
25,93067	8619
25,94133	8625
25,95200	8629
25,96267	8634
25,97333	8638
25,98400	8638
25,99467	8655
26,00533	8654
26,01600	8657
26,02667	8674
26,03733	8681
26,04800	8693
26,05867	8699
26,06933	8709
26,08000	8722
26,09067	8734
26,10133	8742
26,11200	8750
26,12267	8755
26,13333	8766
26,14400	8781
26,15467	8796
26,16533	8807
26,17600	8814
26,18667	8820
26,19733	8833
26,20800	8833
26,21867	8834
26,22933	8839
26,24000	8848
26,25067	8852
26,26133	8869
26,27200	8878
26,28267	8891
26,29333	8891
26,30400	8903
26,31467	8910
26,32533	8919
26,33600	8924
26,34667	8938
26,35733	8948
26,36800	8952
26,37867	8961
26,38933	8967
26,40000	8976
26,41067	8985
26,42133	8990
26,43200	8999
26,44267	9005
26,45333	9013
26,46400	9025
26,47467	9033
26,48533	9042
26,49600	9047
26,50667	9052
26,51733	9059
26,52800	9063
26,53867	9072
26,54933	9082
26,56000	9090
26,57067	9093
26,58133	9097
26,59200	9111
26,60267	9121
26,61333	9130
26,62400	9151
26,63467	9163
26,64533	9176
26,65600	9187
26,66667	9204
26,67733	9222
26,68800	9241
26,69867	9254
26,70933	9275
26,72000	9292
26,73067	9304
26,74133	9319
26,75200	9329
26,76267	9340
26,77333	9349
26,78400	9354
26,79467	9369
26,80533	9380
26,81600	9393
26,82667	9416
26,83733	9438
26,84800	9454
26,85867	9484
26,86933	9524
26,88000	9565
26,89067	9613
26,90133	9680
26,91200	9746
26,92267	9814
26,93333	9870
26,94400	9932
26,95467	9976
26,96533	10016
26,97600	10045
26,98667	10064
26,99733	10067
27,00800	10055
27,01867	10028
27,02933	9997
27,04000	9951
27,05067	9900
27,06133	9838
27,07200	9790
27,08267	9748
27,09333	9700
27,10400	9663
27,11467	9624
27,12533	9599
27,13600	9578
27,14667	9550
27,15733	9531
27,16800	9524
27,17867	9517
27,18933	9506
27,20000	9498
27,21067	9493
27,22133	9498
27,23200	9495
27,24267	9494
27,25333	9488
27,26400	9492
27,27467	9499
27,28533	9511
27,29600	9508
27,30667	9521
27,31733	9530
27,32800	9536
27,33867	9535
27,34933	9544
27,36000	9550
27,37067	9549
27,38133	9558
27,39200	9565
27,40267	9563
27,41333	9572
27,42400	9576
27,43467	9578
27,44533	9583
27,45600	9586
27,46667	9597
27,47733	9603
27,48800	9614
27,49867	9608
27,50933	9618
27,52000	9624
27,53067	9638
27,54133	9645
27,55200	9646
27,56267	9650
27,57333	9660
27,58400	9669
27,59467	9677
27,60533	9680
27,61600	9686
27,62667	9689
27,63733	9703
27,64800	9709
27,65867	9722
27,66933	9733
27,68000	9733
27,69067	9742
27,70133	9748
27,71200	9750
27,72267	9747
27,73333	9758
27,74400	9768
27,75467	9780
27,76533	9783
27,77600	9794
27,78667	9803
27,79733	9814
27,80800	9821
27,81867	9828
27,82933	9846
27,84000	9853
27,85067	9863
27,86133	9878
27,87200	9888
27,88267	9899
27,89333	9915
27,90400	9930
27,91467	9939
27,92533	9942
27,93600	9952
27,94667	9949
27,95733	9961
27,96800	9965
27,97867	9970
27,98933	9978
28,00000	9984
28,01067	9989
28,02133	9996
28,03200	9995
28,04267	10001
28,05333	10016
28,06400	10023
28,07467	10034
28,08533	10040
28,09600	10043
28,10667	10070
28,11733	10081
28,12800	10090
28,13867	10100
28,14933	10118
28,16000	10136
28,17067	10148
28,18133	10157
28,19200	10172
28,20267	10186
28,21333	10198
28,22400	10206
28,23467	10210
28,24533	10215
28,25600	10233
28,26667	10231
28,27733	10240
28,28800	10244
28,29867	10257
28,30933	10267
28,32000	10282
28,33067	10288
28,34133	10294
28,35200	10304
28,36267	10321
28,37333	10332
28,38400	10348
28,39467	10372
28,40533	10399
28,41600	10433
28,42667	10468
28,43733	10501
28,44800	10549
28,45867	10595
28,46933	10649
28,48000	10700
28,49067	10750
28,50133	10790
28,51200	10824
28,52267	10851
28,53333	10866
28,54400	10874
28,55467	10869
28,56533	10847
28,57600	10816
28,58667	10791
28,59733	10765
28,60800	10740
28,61867	10709
28,62933	10690
28,64000	10669
28,65067	10655
28,66133	10649
28,67200	10635
28,68267	10634
28,69333	10645
28,70400	10649
28,71467	10658
28,72533	10662
28,73600	10668
28,74667	10682
28,75733	10681
28,76800	10676
28,77867	10680
28,78933	10673
28,80000	10670
28,81067	10666
28,82133	10659
28,83200	10654
28,84267	10645
28,85333	10646
28,86400	10634
28,87467	10636
28,88533	10649
28,89600	10647
28,90667	10645
28,91733	10650
28,92800	10655
28,93867	10666
28,94933	10671
28,96000	10676
28,97067	10680
28,98133	10684
28,99200	10693
29,00267	10707
29,01333	10723
29,02400	10728
29,03467	10740
29,04533	10745
29,05600	10751
29,06667	10768
29,07733	10770
29,08800	10782
29,09867	10797
29,10933	10803
29,12000	10813
29,13067	10814
29,14133	10822
29,15200	10832
29,16267	10844
29,17333	10855
29,18400	10854
29,19467	10865
29,20533	10872
29,21600	10878
29,22667	10897
29,23733	10902
29,24800	10921
29,25867	10940
29,26933	10950
29,28000	10965
29,29067	10986
29,30133	11001
29,31200	11012
29,32267	11025
29,33333	11049
29,34400	11059
29,35467	11072
29,36533	11085
29,37600	11107
29,38667	11122
29,39733	11136
29,40800	11150
29,41867	11159
29,42933	11172
29,44000	11200
29,45067	11224
29,46133	11235
29,47200	11258
29,48267	11278
29,49333	11305
29,50400	11336
29,51467	11351
29,52533	11378
29,53600	11405
29,54667	11429
29,55733	11448
29,56800	11488
29,57867	11519
29,58933	11538
29,60000	11572
29,61067	11610
29,62133	11636
29,63200	11661
29,64267	11694
29,65333	11724
29,66400	11752
29,67467	11789
29,68533	11813
29,69600	11858
29,70667	11885
29,71733	11926
29,72800	11959
29,73867	11999
29,74933	12038
29,76000	12092
29,77067	12145
29,78133	12205
29,79200	12276
29,80267	12353
29,81333	12426
29,82400	12508
29,83467	12609
29,84533	12714
29,85600	12825
29,86667	12946
29,87733	13086
29,88800	13252
29,89867	13454
29,90933	13699
29,92000	14013
29,93067	14452
29,94133	15098
29,95200	16111
29,96267	17712
29,97333	20324
29,98400	24561
29,99467	31397
30,00533	42228
30,01600	59099
30,02667	84404
30,03733	121256
30,04800	172706
30,05867	242385
30,06933	331978
30,08000	441752
30,09067	568599
30,10133	707929
30,11200	850900
30,12267	987611
30,13333	1107289
30,14400	1202309
30,15467	1266703
30,16533	1297103
30,17600	1293271
30,18667	1258353
30,19733	1196875
30,20800	1115141
30,21867	1018962
30,22933	914776
30,24000	806913
30,25067	700390
30,26133	598843
30,27200	505694
30,28267	421784
30,29333	348093
30,30400	284714
30,31467	231694
30,32533	187823
30,33600	151832
30,34667	122692
30,35733	99418
30,36800	81044
30,37867	66421
30,38933	54833
30,40000	45695
30,41067	38563
30,42133	32940
30,43200	28513
30,44267	25056
30,45333	22372
30,46400	20288
30,47467	18681
30,48533	17433
30,49600	16488
30,50667	15771
30,51733	15226
30,52800	14815
30,53867	14487
30,54933	14244
30,56000	14058
30,57067	13902
30,58133	13775
30,59200	13678
30,60267	13599
30,61333	13518
30,62400	13454
30,63467	13409
30,64533	13351
30,65600	13303
30,66667	13263
30,67733	13238
30,68800	13214
30,69867	13193
30,70933	13171
30,72000	13153
30,73067	13155
30,74133	13181
30,75200	13204
30,76267	13253
30,77333	13329
30,78400	13435
30,79467	13575
30,80533	13760
30,81600	13976
30,82667	14254
30,83733	14564
30,84800	14896
30,85867	15246
30,86933	15598
30,88000	15917
30,89067	16184
30,90133	16388
30,91200	16514
30,92267	16555
30,93333	16503
30,94400	16360
30,95467	16154
30,96533	15902
30,97600	15620
30,98667	15335
30,99733	15075
31,00800	14873
31,01867	14739
31,02933	14731
31,04000	14835
31,05067	15110
31,06133	15588
31,07200	16262
31,08267	17159
31,09333	18293
31,10400	19616
31,11467	21099
31,12533	22699
31,13600	24308
31,14667	25850
31,15733	27196
31,16800	28281
31,17867	29013
31,18933	29324
31,20000	29202
31,21067	28672
31,22133	27777
31,23200	26599
31,24267	25224
31,25333	23739
31,26400	22232
31,27467	20778
31,28533	19425
31,29600	18233
31,30667	17186
31,31733	16310
31,32800	15592
31,33867	15022
31,34933	14570
31,36000	14201
31,37067	13928
31,38133	13715
31,39200	13562
31,40267	13448
31,41333	13368
31,42400	13323
31,43467	13313
31,44533	13324
31,45600	13356
31,46667	13411
31,47733	13476
31,48800	13559
31,49867	13644
31,50933	13733
31,52000	13803
31,53067	13871
31,54133	13921
31,55200	13956
31,56267	13954
31,57333	13924
31,58400	13884
31,59467	13827
31,60533	13754
31,61600	13678
31,62667	13598
31,63733	13548
31,64800	13502
31,65867	13469
31,66933	13456
31,68000	13466
31,69067	13489
31,70133	13520
31,71200	13578
31,72267	13642
31,73333	13710
31,74400	13772
31,75467	13828
31,76533	13871
31,77600	13890
31,78667	13897
31,79733	13883
31,80800	13840
31,81867	13797
31,82933	13742
31,84000	13678
31,85067	13616
31,86133	13554
31,87200	13494
31,88267	13431
31,89333	13386
31,90400	13342
31,91467	13301
31,92533	13266
31,93600	13235
31,94667	13212
31,95733	13187
31,96800	13171
31,97867	13165
31,98933	13150
32,00000	13145
32,01067	13137
32,02133	13137
32,03200	13147
32,04267	13157
32,05333	13171
32,06400	13182
32,07467	13178
32,08533	13185
32,09600	13187
32,10667	13186
32,11733	13193
32,12800	13193
32,13867	13194
32,14933	13193
32,16000	13189
32,17067	13188
32,18133	13186
32,19200	13179
32,20267	13181
32,21333	13179
32,22400	13187
32,23467	13187
32,24533	13201
32,25600	13197
32,26667	13194
32,27733	13201
32,28800	13211
32,29867	13218
32,30933	13221
32,32000	13234
32,33067	13243
32,34133	13251
32,35200	13259
32,36267	13267
32,37333	13281
32,38400	13290
32,39467	13306
32,40533	13319
32,41600	13335
32,42667	13351
32,43733	13357
32,44800	13378
32,45867	13396
32,46933	13410
32,48000	13431
32,49067	13444
32,50133	13467
32,51200	13495
32,52267	13521
32,53333	13541
32,54400	13558
32,55467	13583
32,56533	13602
32,57600	13633
32,58667	13665
32,59733	13690
32,60800	13713
32,61867	13743
32,62933	13771
32,64000	13811
32,65067	13840
32,66133	13881
32,67200	13918
32,68267	13949
32,69333	13984
32,70400	14025
32,71467	14066
32,72533	14110
32,73600	14155
32,74667	14205
32,75733	14259
32,76800	14312
32,77867	14364
32,78933	14421
32,80000	14475
32,81067	14533
32,82133	14594
32,83200	14677
32,84267	14751
32,85333	14850
32,86400	14958
32,87467	15087
32,88533	15241
32,89600	15421
32,90667	15619
32,91733	15826
32,92800	16034
32,93867	16245
32,94933	16459
32,96000	16647
32,97067	16800
32,98133	16918
32,99200	16997
33,00267	17044
33,01333	17060
33,02400	17060
33,03467	17045
33,04533	17026
33,05600	17011
33,06667	17017
33,07733	17033
33,08800	17058
33,09867	17106
33,10933	17157
33,12000	17223
33,13067	17294
33,14133	17369
33,15200	17446
33,16267	17531
33,17333	17617
33,18400	17698
33,19467	17795
33,20533	17880
33,21600	17977
33,22667	18079
33,23733	18173
33,24800	18279
33,25867	18370
33,26933	18469
33,28000	18571
33,29067	18667
33,30133	18760
33,31200	18857
33,32267	18965
33,33333	19062
33,34400	19153
33,35467	19245
33,36533	19335
33,37600	19420
33,38667	19502
33,39733	19586
33,40800	19675
33,41867	19769
33,42933	19865
33,44000	19957
33,45067	20039
33,46133	20136
33,47200	20234
33,48267	20329
33,49333	20421
33,50400	20514
33,51467	20612
33,52533	20711
33,53600	20805
33,54667	20908
33,55733	21013
33,56800	21112
33,57867	21208
33,58933	21303
33,60000	21409
33,61067	21513
33,62133	21628
33,63200	21755
33,64267	21902
33,65333	22049
33,66400	22214
33,67467	22363
33,68533	22512
33,69600	22636
33,70667	22730
33,71733	22807
33,72800	22880
33,73867	22961
33,74933	23054
33,76000	23148
33,77067	23249
33,78133	23363
33,79200	23472
33,80267	23590
33,81333	23687
33,82400	23794
33,83467	23911
33,84533	24027
33,85600	24144
33,86667	24281
33,87733	24411
33,88800	24537
33,89867	24667
33,90933	24784
33,92000	24881
33,93067	24978
33,94133	25089
33,95200	25194
33,96267	25317
33,97333	25435
33,98400	25539
33,99467	25655
34,00533	25778
34,01600	25905
34,02667	26021
34,03733	26165
34,04800	26340
34,05867	26529
34,06933	26717
34,08000	26894
34,09067	27043
34,10133	27152
34,11200	27222
34,12267	27282
34,13333	27343
34,14400	27419
34,15467	27520
34,16533	27638
34,17600	27770
34,18667	27917
34,19733	28092
34,20800	28296
34,21867	28534
34,22933	28834
34,24000	29230
34,25067	29794
34,26133	30848
34,27200	33027
34,28267	37306
34,29333	44205
34,30400	52906
34,31467	60695
34,32533	64443
34,33600	62950
34,34667	57473
34,35733	50608
34,36800	44388
34,37867	39728
34,38933	36591
34,40000	34642
34,41067	33523
34,42133	32969
34,43200	32795
34,44267	32796
34,45333	32889
34,46400	32999
34,47467	33091
34,48533	33131
34,49600	33155
34,50667	33145
34,51733	33157
34,52800	33174
34,53867	33197
34,54933	33211
34,56000	33233
34,57067	33261
34,58133	33288
34,59200	33326
34,60267	33379
34,61333	33454
34,62400	33553
34,63467	33643
34,64533	33714
34,65600	33782
34,66667	33838
34,67733	33899
34,68800	33977
34,69867	34058
34,70933	34171
34,72000	34360
34,73067	34816
34,74133	35926
34,75200	38172
34,76267	41565
34,77333	45302
34,78400	47979
34,79467	48575
34,80533	47172
34,81600	44676
34,82667	42086
34,83733	39982
34,84800	38532
34,85867	37627
34,86933	37098
34,88000	36808
34,89067	36674
34,90133	36659
34,91200	36715
34,92267	36799
34,93333	36868
34,94400	36928
34,95467	37016
34,96533	37228
34,97600	37832
34,98667	39461
34,99733	43275
35,00800	50835
35,01867	63402
35,02933	81460
35,04000	103578
35,05067	126224
35,06133	143332
35,07200	149219
35,08267	142721
35,09333	127927
35,10400	110886
35,11467	95585
35,12533	83562
35,13600	74701
35,14667	68387
35,15733	63996
35,16800	61034
35,17867	58994
35,18933	57408
35,20000	55989
35,21067	54661
35,22133	53497
35,23200	52527
35,24267	51744
35,25333	51086
35,26400	50494
35,27467	49937
35,28533	49427
35,29600	48969
35,30667	48558
35,31733	48209
35,32800	47922
35,33867	47699
35,34933	47543
35,36000	47389
35,37067	47130
35,38133	46692
35,39200	46172
35,40267	45750
35,41333	45554
35,42400	45772
35,43467	46637
35,44533	48363
35,45600	50767
35,46667	53107
35,47733	54572
35,48800	54853
35,49867	54246
35,50933	53175
35,52000	51925
35,53067	50587
35,54133	49385
35,55200	48592
35,56267	48458
35,57333	48919
35,58400	49560
35,59467	49844
35,60533	49501
35,61600	48692
35,62667	47753
35,63733	46911
35,64800	46222
35,65867	45674
35,66933	45260
35,68000	44944
35,69067	44727
35,70133	44570
35,71200	44468
35,72267	44417
35,73333	44398
35,74400	44420
35,75467	44447
35,76533	44504
35,77600	44632
35,78667	44864
35,79733	45212
35,80800	45715
35,81867	46311
35,82933	46863
35,84000	47213
35,85067	47311
35,86133	47224
35,87200	47067
35,88267	46869
35,89333	46611
35,90400	46263
35,91467	45889
35,92533	45525
35,93600	45198
35,94667	44952
35,95733	44760
35,96800	44643
35,97867	44602
35,98933	44619
36,00000	44690
36,01067	44789
36,02133	44869
36,03200	44901
36,04267	44873
36,05333	44790
36,06400	44709
36,07467	44635
36,08533	44586
36,09600	44586
36,10667	44625
36,11733	44699
36,12800	44798
36,13867	44918
36,14933	45064
36,16000	45244
36,17067	45409
36,18133	45551
36,19200	45669
36,20267	45766
36,21333	45868
36,22400	45971
36,23467	46081
36,24533	46151
36,25600	46160
36,26667	46109
36,27733	46080
36,28800	46153
36,29867	46380
36,30933	46752
36,32000	47129
36,33067	47351
36,34133	47323
36,35200	47066
36,36267	46713
36,37333	46381
36,38400	46108
36,39467	45900
36,40533	45713
36,41600	45566
36,42667	45438
36,43733	45359
36,44800	45297
36,45867	45259
36,46933	45241
36,48000	45240
36,49067	45260
36,50133	45277
36,51200	45291
36,52267	45319
36,53333	45341
36,54400	45358
36,55467	45371
36,56533	45387
36,57600	45401
36,58667	45413
36,59733	45420
36,60800	45438
36,61867	45450
36,62933	45471
36,64000	45497
36,65067	45532
36,66133	45585
36,67200	45647
36,68267	45698
36,69333	45740
36,70400	45767
36,71467	45786
36,72533	45789
36,73600	45819
36,74667	45870
36,75733	45954
36,76800	46055
36,77867	46114
36,78933	46126
36,80000	46096
36,81067	46014
36,82133	45919
36,83200	45830
36,84267	45756
36,85333	45708
36,86400	45688
36,87467	45672
36,88533	45671
36,89600	45677
36,90667	45679
36,91733	45677
36,92800	45694
36,93867	45718
36,94933	45754
36,96000	45831
36,97067	45947
36,98133	46117
36,99200	46344
37,00267	46604
37,01333	46847
37,02400	47010
37,03467	47073
37,04533	47008
37,05600	46866
37,06667	46667
37,07733	46454
37,08800	46272
37,09867	46118
37,10933	46022
37,12000	45950
37,13067	45916
37,14133	45913
37,15200	45924
37,16267	45971
37,17333	46051
37,18400	46166
37,19467	46302
37,20533	46426
37,21600	46518
37,22667	46537
37,23733	46516
37,24800	46436
37,25867	46342
37,26933	46244
37,28000	46170
37,29067	46118
37,30133	46083
37,31200	46064
37,32267	46056
37,33333	46063
37,34400	46060
37,35467	46062
37,36533	46069
37,37600	46080
37,38667	46101
37,39733	46115
37,40800	46137
37,41867	46168
37,42933	46199
37,44000	46212
37,45067	46238
37,46133	46267
37,47200	46297
37,48267	46321
37,49333	46354
37,50400	46381
37,51467	46411
37,52533	46425
37,53600	46456
37,54667	46463
37,55733	46475
37,56800	46489
37,57867	46502
37,58933	46527
37,60000	46546
37,61067	46567
37,62133	46584
37,63200	46604
37,64267	46630
37,65333	46657
37,66400	46697
37,67467	46721
37,68533	46754
37,69600	46793
37,70667	46841
37,71733	46878
37,72800	46932
37,73867	46980
37,74933	47034
37,76000	47084
37,77067	47129
37,78133	47170
37,79200	47193
37,80267	47224
37,81333	47247
37,82400	47248
37,83467	47264
37,84533	47272
37,85600	47288
37,86667	47301
37,87733	47317
37,88800	47346
37,89867	47372
37,90933	47395
37,92000	47427
37,93067	47458
37,94133	47487
37,95200	47522
37,96267	47566
37,97333	47600
37,98400	47636
37,99467	47676
38,00533	47715
38,01600	47751
38,02667	47781
38,03733	47816
38,04800	47855
38,05867	47888
38,06933	47929
38,08000	47967
38,09067	47996
38,10133	48039
38,11200	48080
38,12267	48123
38,13333	48163
38,14400	48207
38,15467	48246
38,16533	48286
38,17600	48324
38,18667	48366
38,19733	48403
38,20800	48455
38,21867	48506
38,22933	48554
38,24000	48602
38,25067	48653
38,26133	48696
38,27200	48729
38,28267	48766
38,29333	48807
38,30400	48838
38,31467	48866
38,32533	48903
38,33600	48936
38,34667	48963
38,35733	48983
38,36800	49018
38,37867	49055
38,38933	49084
38,40000	49119
38,41067	49160
38,42133	49189
38,43200	49221
38,44267	49254
38,45333	49293
38,46400	49328
38,47467	49359
38,48533	49386
38,49600	49419
38,50667	49452
38,51733	49487
38,52800	49501
38,53867	49532
38,54933	49557
38,56000	49583
38,57067	49611
38,58133	49632
38,59200	49649
38,60267	49670
38,61333	49695
38,62400	49714
38,63467	49731
38,64533	49748
38,65600	49770
38,66667	49793
38,67733	49811
38,68800	49830
38,69867	49857
38,70933	49878
38,72000	49903
38,73067	49941
38,74133	49996
38,75200	50093
38,76267	50258
38,77333	50534
38,78400	50996
38,79467	51681
38,80533	52718
38,81600	54219
38,82667	56280
38,83733	58942
38,84800	62183
38,85867	65895
38,86933	69776
38,88000	73452
38,89067	76493
38,90133	78452
38,91200	79070
38,92267	78265
38,93333	76152
38,94400	73060
38,95467	69392
38,96533	65620
38,97600	62076
38,98667	59006
38,99733	56514
39,00800	54603
39,01867	53196
39,02933	52178
39,04000	51472
39,05067	50966
39,06133	50602
39,07200	50319
39,08267	50083
39,09333	49879
39,10400	49699
39,11467	49535
39,12533	49368
39,13600	49206
39,14667	49030
39,15733	48855
39,16800	48678
39,17867	48499
39,18933	48308
39,20000	48100
39,21067	47897
39,22133	47687
39,23200	47462
39,24267	47226
39,25333	46975
39,26400	46728
39,27467	46472
39,28533	46193
39,29600	45911
39,30667	45635
39,31733	45335
39,32800	45023
39,33867	44714
39,34933	44402
39,36000	44080
39,37067	43759
39,38133	43426
39,39200	43109
39,40267	42784
39,41333	42473
39,42400	42148
39,43467	41835
39,44533	41548
39,45600	41252
39,46667	40947
39,47733	40659
39,48800	40373
39,49867	40071
39,50933	39751
39,52000	39405
39,53067	39028
39,54133	38632
39,55200	38214
39,56267	37769
39,57333	37328
39,58400	36918
39,59467	36515
39,60533	36089
39,61600	35615
39,62667	35060
39,63733	34410
39,64800	33626
39,65867	32745
39,66933	31757
39,68000	30663
39,69067	29515
39,70133	28314
39,71200	27076
39,72267	25827
39,73333	24556
39,74400	23271
39,75467	21985
39,76533	20707
39,77600	19469
39,78667	18291
39,79733	17176
39,80800	16115
39,81867	15104
39,82933	14155
39,84000	13258
39,85067	12455
39,86133	11695
39,87200	10994
39,88267	10355
39,89333	9759
39,90400	9218
39,91467	8710
39,92533	8261
39,93600	7842
39,94667	7459
39,95733	7100
39,96800	6762
39,97867	6465
39,98933	6178
40,00000	5910
40,01067	5664
40,02133	5436
40,03200	5224
40,04267	5018
40,05333	4835
40,06400	4658
40,07467	4492
40,08533	4337
40,09600	4182
40,10667	4037
40,11733	3901
40,12800	3770
40,13867	3649
40,14933	3526
40,16000	3422
40,17067	3323
40,18133	3218
40,19200	3130
40,20267	3038
40,21333	2947
40,22400	2858
40,23467	2773
40,24533	2697
40,25600	2620
40,26667	2549
40,27733	2482
40,28800	2415
40,29867	2350
40,30933	2295
40,32000	2234
40,33067	2172
40,34133	2123
40,35200	2072
40,36267	2019
40,37333	1967
40,38400	1921
40,39467	1883
40,40533	1834
40,41600	1792
40,42667	1748
40,43733	1708
40,44800	1672
40,45867	1627
40,46933	1597
40,48000	1560
40,49067	1531
40,50133	1490
40,51200	1457
40,52267	1426
40,53333	1394
40,54400	1358
40,55467	1327
40,56533	1296
40,57600	1271
40,58667	1242
40,59733	1220
40,60800	1191
40,61867	1157
40,62933	1124
40,64000	1100
40,65067	1070
40,66133	1048
40,67200	1021
40,68267	989
40,69333	962
40,70400	943
40,71467	918
40,72533	891
40,73600	869
40,74667	842
40,75733	821
40,76800	791
40,77867	767
40,78933	742
40,80000	722
40,81067	696
40,82133	670
40,83200	650
40,84267	632
40,85333	609
40,86400	583
40,87467	553
40,88533	533
40,89600	518
40,90667	505
40,91733	478
40,92800	461
40,93867	446
40,94933	429
40,96000	403
40,97067	395
40,98133	371
40,99200	363
41,00267	347
41,01333	332
41,02400	319
41,03467	301
41,04533	288
41,05600	273
41,06667	266
41,07733	250
41,08800	240
41,09867	229
41,10933	214
41,12000	207
41,13067	197
41,14133	184
41,15200	175
41,16267	159
41,17333	154
41,18400	149
41,19467	137
41,20533	124
41,21600	116
41,22667	102
41,23733	91
41,24800	85
41,25867	82
41,26933	70
41,28000	58
41,29067	54
41,30133	44
41,31200	38
41,32267	45
41,33333	34
41,34400	27
41,35467	32
41,36533	15
41,37600	10
41,38667	2
41,39733	6
41,40800	5
41,41867	4
41,42933	-2
41,44000	-1
41,45067	1
41,46133	-0
41,47200	-4
41,48267	-7
41,49333	-6
41,50400	-1
41,51467	2
41,52533	4
41,53600	6
41,54667	18
41,55733	21
41,56800	12
41,57867	21
41,58933	37
41,60000	28
41,61067	32
41,62133	30
41,63200	46
41,64267	52
41,65333	55
41,66400	62
41,67467	62
41,68533	76
41,69600	84
41,70667	94
41,71733	101
41,72800	100
41,73867	105
41,74933	114
41,76000	107
41,77067	114
41,78133	121
41,79200	132
41,80267	139
41,81333	143
41,82400	151
41,83467	158
41,84533	165
41,85600	175
41,86667	178
41,87733	180
41,88800	185
41,89867	192
41,90933	197
41,92000	200
41,93067	212
41,94133	215
41,95200	217
41,96267	222
41,97333	231
41,98400	235
41,99467	236
42,00533	237
42,01600	241
42,02667	254
42,03733	258
42,04800	262
42,05867	266
42,06933	268
42,08000	274
42,09067	285
42,10133	289
42,11200	288
42,12267	286
42,13333	290
42,14400	286
42,15467	299
42,16533	291
42,17600	293
42,18667	290
42,19733	302
42,20800	308
42,21867	308
42,22933	305
42,24000	314
42,25067	318
42,26133	312
42,27200	317
42,28267	322
42,29333	320
42,30400	317
42,31467	316
42,32533	320
42,33600	317
42,34667	316
42,35733	318
42,36800	314
42,37867	320
42,38933	328
42,40000	323
42,41067	326
42,42133	322
42,43200	326
42,44267	330
42,45333	330
42,46400	326
42,47467	322
42,48533	325
42,49600	326
42,50667	329
42,51733	320
42,52800	325
42,53867	317
42,54933	328
42,56000	322
42,57067	330
42,58133	326
42,59200	324
42,60267	335
42,61333	328
42,62400	322
42,63467	331
42,64533	333
42,65600	332
42,66667	321
42,67733	325
42,68800	330
42,69867	321
42,70933	321
42,72000	324
42,73067	322
42,74133	318
42,75200	312
42,76267	316
42,77333	319
42,78400	323
42,79467	328
42,80533	319
42,81600	329
42,82667	328
42,83733	321
42,84800	315
42,85867	314
42,86933	316
42,88000	312
42,89067	314
42,90133	311
42,91200	317
42,92267	322
42,93333	319
42,94400	318
42,95467	313
42,96533	309
42,97600	312
42,98667	312
42,99733	309
43,00800	312
43,01867	309
43,02933	312
43,04000	315
43,05067	307
43,06133	300
43,07200	310
43,08267	316
43,09333	320
43,10400	313
43,11467	310
43,12533	311
43,13600	303
43,14667	305
43,15733	304
43,16800	309
43,17867	306
43,18933	297
43,20000	307
43,21067	311
43,22133	309
43,23200	308
43,24267	306
43,25333	307
43,26400	311
43,27467	311
43,28533	314
43,29600	313
43,30667	313
43,31733	314
43,32800	311
43,33867	312
43,34933	310
43,36000	304
43,37067	298
43,38133	300
43,39200	303
43,40267	308
43,41333	312
43,42400	313
43,43467	296
43,44533	300
43,45600	301
43,46667	308
43,47733	300
43,48800	298
43,49867	307
43,50933	308
43,52000	303
43,53067	303
43,54133	306
43,55200	308
43,56267	313
43,57333	308
43,58400	306
43,59467	311
43,60533	313
43,61600	305
43,62667	315
43,63733	310
43,64800	313
43,65867	315
43,66933	308
43,68000	317
43,69067	317
43,70133	317
43,71200	315
43,72267	315
43,73333	313
43,74400	306
43,75467	315
43,76533	310
43,77600	316
43,78667	316
43,79733	310
43,80800	309
43,81867	313
43,82933	309
43,84000	308
43,85067	306
43,86133	309
43,87200	317
43,88267	314
43,89333	307
43,90400	302
43,91467	312
43,92533	304
43,93600	304
43,94667	306
43,95733	313
43,96800	310
43,97867	306
43,98933	308
44,00000	304
44,01067	293
44,02133	305
44,03200	301
44,04267	308
44,05333	309
44,06400	311
44,07467	308
44,08533	303
44,09600	302
44,10667	299
44,11733	295
44,12800	298
44,13867	289
44,14933	297
44,16000	297
44,17067	293
44,18133	301
44,19200	297
44,20267	307
44,21333	302
44,22400	304
44,23467	305
44,24533	295
44,25600	299
44,26667	293
44,27733	293
44,28800	294
44,29867	297
44,30933	295
44,32000	287
44,33067	299
44,34133	294
44,35200	289
44,36267	290
44,37333	289
44,38400	288
44,39467	282
44,40533	296
44,41600	294
44,42667	299
44,43733	293
44,44800	291
44,45867	290
44,46933	287
44,48000	285
44,49067	291
44,50133	283
44,51200	282
44,52267	290
44,53333	284
44,54400	279
44,55467	286
44,56533	286
44,57600	290
44,58667	278
44,59733	287
44,60800	287
44,61867	282
44,62933	284
44,64000	287
44,65067	279
44,66133	276
44,67200	279
44,68267	285
44,69333	278
44,70400	282
44,71467	282
44,72533	276
44,73600	274
44,74667	281
44,75733	280
44,76800	282
44,77867	285
44,78933	282
44,80000	279
44,81067	275
44,82133	274
44,83200	275
44,84267	276
44,85333	277
44,86400	280
44,87467	275
44,88533	273
44,89600	273
44,90667	274
44,91733	279
44,92800	278
44,93867	272
44,94933	276
44,96000	285
44,97067	280
44,98133	282
44,99200	271
45,00267	271
45,01333	280
45,02400	278
45,03467	281
45,04533	280
45,05600	282
45,06667	281
45,07733	280
45,08800	279
45,09867	276
45,10933	276
45,12000	270
45,13067	279
45,14133	272
45,15200	277
45,16267	278
45,17333	282
45,18400	284
45,19467	285
45,20533	282
45,21600	282
45,22667	280
45,23733	282
45,24800	277
45,25867	275
45,26933	279
45,28000	274
45,29067	281
45,30133	279
45,31200	281
45,32267	277
45,33333	280
45,34400	281
45,35467	273
45,36533	280
45,37600	278
45,38667	280
45,39733	277
45,40800	279
45,41867	286
45,42933	286
45,44000	282
45,45067	282
45,46133	280
45,47200	278
45,48267	286
45,49333	278
45,50400	282
45,51467	283
45,52533	279
45,53600	285
45,54667	288
45,55733	281
45,56800	285
45,57867	284
45,58933	284
45,60000	289
45,61067	283
45,62133	286
45,63200	291
45,64267	288
45,65333	284
45,66400	286
45,67467	288
45,68533	285
45,69600	281
45,70667	279
45,71733	281
45,72800	280
45,73867	286
45,74933	283
45,76000	284
45,77067	282
45,78133	268
45,79200	279
45,80267	281
45,81333	272
45,82400	266
45,83467	268
45,84533	268
45,85600	268
45,86667	269
45,87733	272
45,88800	278
45,89867	277
45,90933	275
45,92000	276
45,93067	276
45,94133	281
45,95200	278
45,96267	275
45,97333	278
45,98400	282
45,99467	285
46,00533	278
46,01600	289
46,02667	279
46,03733	279
46,04800	280
46,05867	288
46,06933	288
46,08000	285
46,09067	278
46,10133	284
46,11200	282
46,12267	279
46,13333	281
46,14400	275
46,15467	276
46,16533	275
46,17600	272
46,18667	273
46,19733	272
46,20800	275
46,21867	279
46,22933	280
46,24000	281
46,25067	273
46,26133	275
46,27200	268
46,28267	270
46,29333	275
46,30400	273
46,31467	274
46,32533	283
46,33600	274
46,34667	272
46,35733	272
46,36800	267
46,37867	266
46,38933	276
46,40000	270
46,41067	265
46,42133	266
46,43200	268
46,44267	273
46,45333	264
46,46400	264
46,47467	269
46,48533	267
46,49600	267
46,50667	259
46,51733	269
46,52800	268
46,53867	262
46,54933	268
46,56000	269
46,57067	276
46,58133	268
46,59200	262
46,60267	269
46,61333	266
46,62400	269
46,63467	264
46,64533	271
46,65600	270
46,66667	252
46,67733	257
46,68800	254
46,69867	259
46,70933	263
46,72000	273
46,73067	271
46,74133	265
46,75200	269
46,76267	263
46,77333	264
46,78400	257
46,79467	261
46,80533	264
46,81600	261
46,82667	261
46,83733	259
46,84800	265
46,85867	263
46,86933	263
46,88000	262
46,89067	264
46,90133	267
46,91200	271
46,92267	260
46,93333	251
46,94400	257
46,95467	253
46,96533	261
46,97600	257
46,98667	260
46,99733	263
47,00800	262
47,01867	266
47,02933	260
47,04000	259
47,05067	255
47,06133	256
47,07200	253
47,08267	245
47,09333	243
47,10400	251
47,11467	257
47,12533	261
47,13600	264
47,14667	261
47,15733	258
47,16800	262
47,17867	264
47,18933	263
47,20000	269
47,21067	262
47,22133	261
47,23200	263
47,24267	265
47,25333	262
47,26400	262
47,27467	268
47,28533	258
47,29600	259
47,30667	269
47,31733	261
47,32800	265
47,33867	266
47,34933	267
47,36000	261
47,37067	266
47,38133	269
47,39200	264
47,40267	263
47,41333	263
47,42400	262
47,43467	266
47,44533	268
47,45600	259
47,46667	264
47,47733	262
47,48800	270
47,49867	265
47,50933	270
47,52000	270
47,53067	269
47,54133	262
47,55200	255
47,56267	264
47,57333	266
47,58400	263
47,59467	259
47,60533	261
47,61600	258
47,62667	256
47,63733	251
47,64800	256
47,65867	254
47,66933	253
47,68000	254
47,69067	255
47,70133	251
47,71200	256
47,72267	246
47,73333	247
47,74400	261
47,75467	262
47,76533	256
47,77600	257
47,78667	259
47,79733	258
47,80800	259
47,81867	251
47,82933	251
47,84000	263
47,85067	266
47,86133	274
47,87200	267
47,88267	269
47,89333	262
47,90400	262
47,91467	261
47,92533	258
47,93600	263
47,94667	264
47,95733	264
47,96800	259
47,97867	268
47,98933	267
48,00000	271
48,01067	267
48,02133	257
48,03200	261
48,04267	265
48,05333	264
48,06400	269
48,07467	264
48,08533	268
48,09600	260
48,10667	267
48,11733	262
48,12800	260
48,13867	266
48,14933	263
48,16000	263
48,17067	266
48,18133	267
48,19200	262
48,20267	267
48,21333	259
48,22400	258
48,23467	263
48,24533	258
48,25600	259
48,26667	257
48,27733	255
48,28800	259
48,29867	247
48,30933	254
48,32000	245
48,33067	255
48,34133	262
48,35200	259
48,36267	261
48,37333	254
48,38400	257
48,39467	255
48,40533	256
48,41600	260
48,42667	257
48,43733	253
48,44800	247
48,45867	251
48,46933	249
48,48000	253
48,49067	259
48,50133	250
48,51200	249
48,52267	245
48,53333	250
48,54400	256
48,55467	245
48,56533	239
48,57600	241
48,58667	240
48,59733	243
48,60800	240
48,61867	245
48,62933	244
48,64000	234
48,65067	244
48,66133	243
48,67200	243
48,68267	239
48,69333	240
48,70400	246
48,71467	238
48,72533	237
48,73600	243
48,74667	245
48,75733	244
48,76800	230
48,77867	237
48,78933	235
48,80000	235
48,81067	243
48,82133	241
48,83200	239
48,84267	241
48,85333	238
48,86400	241
48,87467	241
48,88533	240
48,89600	240
48,90667	238
48,91733	239
48,92800	236
48,93867	238
48,94933	233
48,96000	231
48,97067	234
48,98133	238
48,99200	242
49,00267	240
49,01333	238
49,02400	227
49,03467	233
49,04533	230
49,05600	238
49,06667	231
49,07733	229
49,08800	229
49,09867	233
49,10933	234
49,12000	225
49,13067	225
49,14133	237
49,15200	233
49,16267	235
49,17333	230
49,18400	232
49,19467	228
49,20533	218
49,21600	228
49,22667	231
49,23733	233
49,24800	235
49,25867	225
49,26933	226
49,28000	222
49,29067	219
49,30133	219
49,31200	221
49,32267	231
49,33333	236
49,34400	234
49,35467	231
49,36533	232
49,37600	230
49,38667	225
49,39733	233
49,40800	236
49,41867	238
49,42933	237
49,44000	229
49,45067	221
49,46133	217
49,47200	227
49,48267	224
49,49333	225
49,50400	228
49,51467	224
49,52533	227
49,53600	226
49,54667	225
49,55733	224
49,56800	224
49,57867	223
49,58933	231
49,60000	225
49,61067	219
49,62133	223
49,63200	227
49,64267	223
49,65333	225
49,66400	223
49,67467	228
49,68533	221
49,69600	222
49,70667	229
49,71733	224
49,72800	225
49,73867	228
49,74933	228
49,76000	223
49,77067	219
49,78133	214
49,79200	222
49,80267	216
49,81333	211
49,82400	213
49,83467	209
49,84533	211
49,85600	210
49,86667	215
49,87733	212
49,88800	211
49,89867	210
49,90933	207
49,92000	199
49,93067	198
49,94133	202
49,95200	198
49,96267	201
49,97333	199
49,98400	205
49,99467	205
50,00533	203


