[Header]
Application Name	LabSolutions
Version	5.73
Data File Name	C:\Users\Public\DADOS\Ricardo borges\RMBorges\26.02.25\CHIMARRAO 1.lcd
Output Date	27/02/2025
Output Time	07:16:23

[File Information]
Type	Data File
Generated	27/02/2025 06:25:55
Generated by	System Administrator
Modified	27/02/2025 07:16:22
Modified by	System Administrator

[Sample Information]
Operator Name	System Administrator
Acquired	27/02/2025 06:26:19
Sample Type	0:Unknown
Level	0
Sample Name	CHIMARRAO 1
Sample ID	CHIMARRAO 1
ISTD Amount1	1
ISTD Amount2	1
ISTD Amount3	1
ISTD Amount4	1
ISTD Amount5	1
ISTD Amount6	1
ISTD Amount7	1
ISTD Amount8	1
ISTD Amount9	1
ISTD Amount10	1
ISTD Amount11	1
ISTD Amount12	1
ISTD Amount13	1
ISTD Amount14	1
ISTD Amount15	1
ISTD Amount16	1
ISTD Amount17	1
ISTD Amount18	1
ISTD Amount19	1
ISTD Amount20	1
ISTD Amount21	1
ISTD Amount22	1
ISTD Amount23	1
ISTD Amount24	1
ISTD Amount25	1
ISTD Amount26	1
ISTD Amount27	1
ISTD Amount28	1
ISTD Amount29	1
ISTD Amount30	1
ISTD Amount31	1
ISTD Amount32	1
Sample Amount	1
Dilution Factor	1
Vial#	27
Injection Volume	10

[Original Files]
Data File	C:\Users\Public\DADOS\Ricardo borges\RMBorges\26.02.25\CHIMARRAO 1.lcd
Method File	C:\Users\Public\MÉTODOS\MÉTODOS HPLC AUTOMÁTICO\RICARDO BORGES\RMBorges\sciffee\experimental 1 - pool.lcm
Batch File	C:\Users\Public\DADOS\Ricardo borges\RMBorges\26.02.25\BATCH_RM_MIX POOL_26.02.2025.lcb
Report Format File	C:\LabSolutions\System\Default.lsr

[File Description]


[Configuration]
Instrument Name	HPLC analítico (automático)
Instrument #	1
Line #	1
# of Detectors	1
Detector ID	PDA
Detector Name	PDA
# of Channels	1

[Peak Table(PDA-Ch1)]
# of Peaks	89
Peak#	R.Time	I.Time	F.Time	Area	Height	A/H	Conc.	Mark	ID#	Name	k'	Plate #	Plate Ht.	Tailing	Resolution	Sep.Factor	Area Ratio	Height Ratio	Conc. %	Norm Conc.
1	1,555	1,131	1,707	304538	22420	13,583	0,000	   			0,000	267	562,518	0,000	0,000	0,000	0	0	0,000	0,000
2	1,764	1,707	1,984	332805	35614	9,345	0,000	 V 			0,134	1430	104,897	0,000	0,736	0,000	0	0	0,000	0,000
3	2,083	1,984	2,741	1151261	118773	9,693	0,000	SV 			0,339	1522	98,542	0,000	1,595	2,529	0	0	0,000	0,000
4	2,483	2,411	2,560	11981	2148	5,578	0,000	T  			0,597	3025	49,585	0,000	2,030	1,758	0	0	0,000	0,000
5	2,633	2,560	2,731	21383	4120	5,190	0,000	TV 			0,693	4152	36,125	0,000	0,872	1,162	0	0	0,000	0,000
6	2,883	2,741	3,147	208307	16985	12,264	0,000	 V 			0,854	1684	89,088	0,000	1,124	1,232	0	0	0,000	0,000
7	3,369	3,147	3,616	139080	9793	14,201	0,000	 V 			1,166	1762	85,152	0,000	1,613	1,366	0	0	0,000	0,000
8	3,844	3,616	4,000	114850	8788	13,068	0,000	 V 			1,471	1728	86,814	0,000	1,376	1,262	0	0	0,000	0,000
9	4,125	4,000	4,576	154634	9010	17,163	0,000	 V 			1,652	2222	67,507	0,000	0,781	1,123	0	0	0,000	0,000
10	4,693	4,576	4,747	29373	3060	9,599	0,000	 V 			2,018	26	5662,743	0,000	0,284	1,221	0	0	0,000	0,000
11	4,836	4,747	4,907	30720	3298	9,314	0,000	 V 			2,110	67	2228,114	0,000	0,048	1,046	0	0	0,000	0,000
12	5,031	4,907	5,269	62978	3651	17,251	0,000	 V 			2,235	372	403,326	0,000	0,115	1,059	0	0	0,000	0,000
13	5,517	5,269	5,888	237229	16710	14,197	0,000	 V 			2,547	4172	35,950	0,000	0,702	1,140	0	0	0,000	0,000
14	6,067	5,888	6,133	42836	3882	11,035	0,000	 V 			2,901	701	214,100	0,000	0,873	1,139	0	0	0,000	0,000
15	6,398	6,133	6,699	13999834	1268384	11,038	0,000	 V 			3,114	7156	20,961	1,242	0,544	1,073	0	0	0,000	0,000
16	6,838	6,699	7,221	1587017	100383	15,810	0,000	 V 			3,396	5012	29,931	0,000	1,275	1,091	0	0	0,000	0,000
17	7,339	7,221	7,605	280895	19795	14,190	0,000	 V 			3,719	3490	42,975	0,000	1,136	1,095	0	0	0,000	0,000
18	7,805	7,605	7,925	90771	4966	18,280	0,000	 V 			4,018	113	1331,644	0,000	0,271	1,081	0	0	0,000	0,000
19	8,039	7,925	8,107	52299	5159	10,137	0,000	 V 			4,168	636	236,004	0,000	0,111	1,037	0	0	0,000	0,000
20	8,238	8,107	8,320	95980	9031	10,628	0,000	 V 			4,297	2159	69,484	0,000	0,201	1,031	0	0	0,000	0,000
21	8,432	8,320	8,544	124761	10800	11,552	0,000	 V 			4,421	2898	51,760	0,000	0,291	1,029	0	0	0,000	0,000
22	8,722	8,544	8,960	480618	38853	12,370	0,000	 V 			4,608	11849	12,659	0,000	0,613	1,042	0	0	0,000	0,000
23	8,992	8,960	9,237	86756	7136	12,158	0,000	 V 			4,781	15	10059,244	0,000	0,056	1,038	0	0	0,000	0,000
24	9,746	9,237	9,973	409232	20693	19,777	0,000	 V 			5,266	9298	16,132	0,000	0,155	1,101	0	0	0,000	0,000
25	10,192	9,973	10,368	548045	37392	14,657	0,000	 V 			5,553	8280	18,117	0,000	1,048	1,055	0	0	0,000	0,000
26	10,500	10,368	10,731	466917	38554	12,111	0,000	 V 			5,751	13448	11,154	0,000	0,759	1,036	0	0	0,000	0,000
27	11,141	10,731	11,616	12906705	1078572	11,966	0,000	 V 			6,163	19221	7,804	1,179	1,877	1,072	0	0	0,000	0,000
28	11,821	11,616	12,032	177045	8888	19,919	0,000	 V 			6,601	4183	35,863	0,000	1,292	1,071	0	0	0,000	0,000
29	12,219	12,032	12,427	321372	25331	12,687	0,000	 V 			6,857	21126	7,100	0,000	0,746	1,039	0	0	0,000	0,000
30	12,598	12,427	12,640	85834	7161	11,987	0,000	 V 			7,100	226	662,943	0,000	0,205	1,035	0	0	0,000	0,000
31	12,794	12,640	12,928	148591	10756	13,814	0,000	 V 			7,226	8138	18,432	0,000	0,100	1,018	0	0	0,000	0,000
32	13,167	12,928	19,445	13100012	519842	25,200	0,000	SV 			7,466	15201	9,868	3,068	0,750	1,033	0	0	0,000	0,000
33	14,265	14,080	14,464	122418	12062	10,149	0,000	T  			8,172	39511	3,796	1,058	3,075	1,095	0	0	0,000	0,000
34	14,731	14,475	14,880	65724	4410	14,905	0,000	T  			8,471	19529	7,681	0,000	1,314	1,037	0	0	0,000	0,000
35	15,047	14,880	15,221	108551	10482	10,356	0,000	TV 			8,675	45426	3,302	0,000	0,898	1,024	0	0	0,000	0,000
36	15,384	15,221	15,467	36382	3127	11,636	0,000	TV 			8,891	11020	13,612	0,000	0,775	1,025	0	0	0,000	0,000
37	15,667	15,467	15,851	131225	9982	13,146	0,000	TV 			9,073	28590	5,247	0,000	0,590	1,020	0	0	0,000	0,000
38	15,977	15,851	16,085	50662	5022	10,089	0,000	TV 			9,272	33187	4,520	0,000	0,860	1,022	0	0	0,000	0,000
39	16,261	16,085	16,448	98209	6576	14,934	0,000	TV 			9,455	21795	6,882	0,000	0,719	1,020	0	0	0,000	0,000
40	16,549	16,448	16,715	40902	2777	14,730	0,000	TV 			9,640	2598	57,747	0,000	0,331	1,020	0	0	0,000	0,000
41	16,856	16,715	16,949	45945	3910	11,751	0,000	TV 			9,837	11623	12,906	0,000	0,319	1,020	0	0	0,000	0,000
42	17,043	16,949	17,237	41271	4075	10,127	0,000	TV 			9,958	21132	7,098	0,000	0,343	1,012	0	0	0,000	0,000
43	17,690	17,248	18,069	274472	14005	19,599	0,000	T  			10,374	25774	5,820	0,000	1,423	1,042	0	0	0,000	0,000
44	18,145	18,069	18,293	22450	2164	10,374	0,000	TV 			10,666	5024	29,858	0,000	0,621	1,028	0	0	0,000	0,000
45	18,512	18,293	18,667	54158	4694	11,538	0,000	TV 			10,902	55325	2,711	0,000	0,548	1,022	0	0	0,000	0,000
46	18,753	18,667	18,859	6274	777	8,074	0,000	TV 			11,057	29690	5,052	0,000	0,641	1,014	0	0	0,000	0,000
47	19,306	18,880	19,445	99884	5929	16,846	0,000	T  			11,413	47871	3,133	0,662	1,404	1,032	0	0	0,000	0,000
48	19,670	19,445	19,904	2671939	243399	10,978	0,000	 V 			11,647	73829	2,032	0,000	1,133	1,021	0	0	0,000	0,000
49	20,024	19,904	20,149	381473	32017	11,915	0,000	 V 			11,875	23885	6,280	0,000	0,878	1,020	0	0	0,000	0,000
50	20,372	20,149	21,259	12473216	1120478	11,132	0,000	SV 			12,098	81249	1,846	1,164	0,865	1,019	0	0	0,000	0,000
51	20,768	20,725	20,885	3724	754	4,939	0,000	T  			12,353	315552	0,475	1,745	1,825	1,021	0	0	0,000	0,000
52	21,120	20,917	21,259	80855	8935	9,049	0,000	T  			12,579	108656	1,380	0,883	1,740	1,018	0	0	0,000	0,000
53	21,599	21,259	21,952	5187946	406230	12,771	0,000	 V 			12,887	71245	2,105	0,992	1,654	1,025	0	0	0,000	0,000
54	22,104	21,952	22,229	291721	18240	15,994	0,000	 V 			13,212	15	10028,507	0,000	0,044	1,025	0	0	0,000	0,000
55	22,452	22,229	22,560	342880	18839	18,201	0,000	 V 			13,435	2691	55,734	0,000	0,028	1,017	0	0	0,000	0,000
56	22,778	22,560	23,125	5069072	444236	11,411	0,000	 V 			13,645	93627	1,602	1,274	0,322	1,016	0	0	0,000	0,000
57	23,254	23,125	23,467	321822	20283	15,867	0,000	 V 			13,951	18840	7,962	0,000	0,976	1,022	0	0	0,000	0,000
58	23,653	23,467	23,915	364779	19362	18,840	0,000	 V 			14,208	30791	4,872	0,000	0,656	1,018	0	0	0,000	0,000
59	24,172	23,915	24,501	1429507	101693	14,057	0,000	 V 			14,541	79068	1,897	0,000	1,175	1,023	0	0	0,000	0,000
60	24,674	24,501	24,853	388903	27077	14,363	0,000	 V 			14,864	50700	2,959	0,000	1,283	1,022	0	0	0,000	0,000
61	25,119	24,853	25,440	494762	22336	22,151	0,000	 V 			15,150	22798	6,579	0,000	0,808	1,019	0	0	0,000	0,000
62	25,618	25,440	25,664	137258	12495	10,985	0,000	 V 			15,471	3187	47,073	0,000	0,402	1,021	0	0	0,000	0,000
63	25,780	25,664	26,464	398654	16750	23,801	0,000	 V 			15,575	34376	4,363	0,000	0,137	1,007	0	0	0,000	0,000
64	26,571	26,464	26,656	54776	4845	11,305	0,000	 V 			16,084	563	266,280	0,000	0,314	1,033	0	0	0,000	0,000
65	27,015	26,656	27,317	232711	10248	22,708	0,000	 V 			16,369	49890	3,007	0,000	0,179	1,018	0	0	0,000	0,000
66	27,467	27,317	27,509	47729	4563	10,460	0,000	 V 			16,660	1097	136,718	0,000	0,238	1,018	0	0	0,000	0,000
67	27,604	27,509	27,872	80363	4709	17,066	0,000	 V 			16,748	2356	63,659	0,000	0,049	1,005	0	0	0,000	0,000
68	28,341	27,872	28,544	120329	4034	29,825	0,000	 V 			17,222	2162	69,393	0,000	0,313	1,028	0	0	0,000	0,000
69	28,673	28,544	29,248	91478	3278	27,909	0,000	 V 			17,435	10686	14,037	0,000	0,187	1,012	0	0	0,000	0,000
70	29,513	29,248	29,579	32493	2596	12,517	0,000	 V 			17,975	7703	19,472	0,000	0,684	1,031	0	0	0,000	0,000
71	29,631	29,579	29,803	24149	2557	9,442	0,000	 V 			18,051	7151	20,976	0,000	0,086	1,004	0	0	0,000	0,000
72	29,952	29,803	30,293	23481	1666	14,090	0,000	 V 			18,257	82117	1,827	0,000	0,352	1,011	0	0	0,000	0,000
73	30,711	30,475	30,933	11978	863	13,884	0,000	   			18,745	106958	1,402	0,000	1,913	1,027	0	0	0,000	0,000
74	31,008	30,933	31,093	2139	259	8,247	0,000	 V 			18,937	29595	5,068	0,000	0,542	1,010	0	0	0,000	0,000
75	31,219	31,093	31,509	4219	407	10,362	0,000	 V 			19,072	170736	0,879	0,000	0,413	1,007	0	0	0,000	0,000
76	33,980	32,789	34,048	233636	6757	34,579	0,000	   			20,848	7736	19,390	0,000	2,989	1,093	0	0	0,000	0,000
77	34,508	34,048	34,603	235618	10490	22,461	0,000	 V 			21,187	12309	12,187	0,000	0,379	1,016	0	0	0,000	0,000
78	34,816	34,603	34,891	118469	7463	15,874	0,000	 V 			21,385	12330	12,165	0,000	0,246	1,009	0	0	0,000	0,000
79	35,069	34,891	35,413	970182	118242	8,205	0,000	 V 			21,548	690863	0,217	0,000	0,356	1,008	0	0	0,000	0,000
80	35,488	35,413	35,563	152659	21690	7,038	0,000	 V 			21,817	195636	0,767	0,000	1,711	1,012	0	0	0,000	0,000
81	35,594	35,563	35,733	121031	15577	7,770	0,000	 V 			21,885	77488	1,936	0,000	0,255	1,003	0	0	0,000	0,000
82	35,850	35,733	35,979	139736	11146	12,537	0,000	 V 			22,050	44354	3,382	0,000	0,430	1,008	0	0	0,000	0,000
83	36,037	35,979	36,096	51847	7556	6,861	0,000	 V 			22,170	144	1041,126	0,000	0,030	1,005	0	0	0,000	0,000
84	36,335	36,096	36,491	163881	8312	19,716	0,000	 V 			22,362	13809	10,862	0,000	0,045	1,009	0	0	0,000	0,000
85	36,785	36,491	36,939	108662	4124	26,350	0,000	 V 			22,651	0	0,000	0,000	0,000	1,013	0	0	0,000	0,000
86	37,048	36,939	37,152	32628	3338	9,774	0,000	 V 			22,820	112519	1,333	0,000	0,000	1,007	0	0	0,000	0,000
87	37,234	37,152	37,376	11531	1342	8,590	0,000	 V 			22,940	1040	144,272	0,000	0,074	1,005	0	0	0,000	0,000
88	37,929	37,824	38,048	3051	494	6,170	0,000	   			23,387	673890	0,223	1,054	0,289	1,019	0	0	0,000	0,000
89	38,923	38,656	39,968	1032710	37452	27,574	0,000	   			24,026	340409	0,441	2,774	4,400	1,027	0	0	0,000	0,000

[Compound Results(PDA)]
# of IDs	0

[PDA Multi Chromatogram(Ch1)]
# of Points	      4689
Interval(msec)	640
Start Time(min)	0
End Time(min)	50,0053
Intensity Units	mAU
Intensity Multiplier	1
Type	MultiChrom
Wavelength(nm)	254
Bandwidth(nm)	4
R.Time (min)	Intensity
0,00000	0
0,01067	0
0,02133	0
0,03200	0
0,04267	0
0,05333	0
0,06400	0
0,07467	0
0,08533	0
0,09600	0
0,10667	-4
0,11733	-6
0,12800	-7
0,13867	-13
0,14933	-10
0,16000	-11
0,17067	-5
0,18133	-11
0,19200	-13
0,20267	-11
0,21333	-10
0,22400	-7
0,23467	-10
0,24533	-8
0,25600	-5
0,26667	-8
0,27733	-13
0,28800	-18
0,29867	-11
0,30933	-10
0,32000	-8
0,33067	-6
0,34133	-5
0,35200	-5
0,36267	-12
0,37333	-5
0,38400	-4
0,39467	-13
0,40533	-9
0,41600	-4
0,42667	-5
0,43733	-12
0,44800	-16
0,45867	-12
0,46933	-12
0,48000	-8
0,49067	-16
0,50133	-20
0,51200	-15
0,52267	-16
0,53333	-12
0,54400	-2
0,55467	-10
0,56533	-7
0,57600	-11
0,58667	-14
0,59733	-17
0,60800	-3
0,61867	-6
0,62933	-10
0,64000	-13
0,65067	-11
0,66133	-9
0,67200	-8
0,68267	-4
0,69333	-2
0,70400	-6
0,71467	-5
0,72533	-13
0,73600	-5
0,74667	-11
0,75733	-8
0,76800	-15
0,77867	-19
0,78933	-18
0,80000	-13
0,81067	-8
0,82133	-9
0,83200	-7
0,84267	-1
0,85333	-7
0,86400	-5
0,87467	-6
0,88533	-11
0,89600	-6
0,90667	-4
0,91733	-9
0,92800	-20
0,93867	-21
0,94933	-20
0,96000	-19
0,97067	-24
0,98133	-22
0,99200	-10
1,00267	-10
1,01333	-18
1,02400	-19
1,03467	-10
1,04533	-20
1,05600	-19
1,06667	-19
1,07733	-12
1,08800	-9
1,09867	-9
1,10933	-10
1,12000	-12
1,13067	-14
1,14133	-4
1,15200	9
1,16267	25
1,17333	37
1,18400	44
1,19467	57
1,20533	62
1,21600	72
1,22667	77
1,23733	81
1,24800	84
1,25867	83
1,26933	83
1,28000	98
1,29067	119
1,30133	139
1,31200	181
1,32267	231
1,33333	311
1,34400	412
1,35467	554
1,36533	803
1,37600	1367
1,38667	2459
1,39733	4005
1,40800	5624
1,41867	7039
1,42933	8240
1,44000	9649
1,45067	11756
1,46133	14593
1,47200	17971
1,48267	20992
1,49333	22589
1,50400	22819
1,51467	22508
1,52533	22282
1,53600	22321
1,54667	22515
1,55733	22613
1,56800	22397
1,57867	21772
1,58933	20782
1,60000	19621
1,61067	18485
1,62133	17433
1,63200	16442
1,64267	15405
1,65333	14199
1,66400	12779
1,67467	11281
1,68533	9916
1,69600	8875
1,70667	8383
1,71733	9031
1,72800	12444
1,73867	20771
1,74933	30735
1,76000	35909
1,77067	35215
1,78133	31430
1,79200	27260
1,80267	24131
1,81333	22187
1,82400	21004
1,83467	20197
1,84533	19581
1,85600	19087
1,86667	18697
1,87733	18414
1,88800	18248
1,89867	18193
1,90933	18151
1,92000	17984
1,93067	17561
1,94133	16813
1,95200	15760
1,96267	14502
1,97333	13203
1,98400	12203
1,99467	12241
2,00533	14762
2,01600	21934
2,02667	35519
2,03733	55321
2,04800	77975
2,05867	98635
2,06933	113005
2,08000	119224
2,09067	117714
2,10133	110376
2,11200	99521
2,12267	87334
2,13333	75374
2,14400	64679
2,15467	55533
2,16533	47832
2,17600	41263
2,18667	35705
2,19733	31193
2,20800	27923
2,21867	25960
2,22933	25038
2,24000	24565
2,25067	23904
2,26133	22661
2,27200	20881
2,28267	18928
2,29333	17112
2,30400	15604
2,31467	14321
2,32533	13170
2,33600	12085
2,34667	11053
2,35733	10090
2,36800	9213
2,37867	8486
2,38933	7927
2,40000	7560
2,41067	7430
2,42133	7528
2,43200	7805
2,44267	8187
2,45333	8582
2,46400	8921
2,47467	9123
2,48533	9169
2,49600	9065
2,50667	8833
2,51733	8520
2,52800	8180
2,53867	7859
2,54933	7612
2,56000	7480
2,57067	7552
2,58133	7863
2,59200	8398
2,60267	9068
2,61333	9712
2,62400	10166
2,63467	10298
2,64533	10082
2,65600	9555
2,66667	8844
2,67733	8051
2,68800	7306
2,69867	6656
2,70933	6163
2,72000	5826
2,73067	5630
2,74133	5575
2,75200	5618
2,76267	5748
2,77333	5938
2,78400	6228
2,79467	6692
2,80533	7457
2,81600	8635
2,82667	10251
2,83733	12187
2,84800	14201
2,85867	15983
2,86933	17250
2,88000	17826
2,89067	17673
2,90133	16900
2,91200	15681
2,92267	14187
2,93333	12670
2,94400	11290
2,95467	10184
2,96533	9439
2,97600	9032
2,98667	8891
2,99733	8889
3,00800	8888
3,01867	8762
3,02933	8469
3,04000	8005
3,05067	7447
3,06133	6838
3,07200	6257
3,08267	5760
3,09333	5355
3,10400	5053
3,11467	4856
3,12533	4723
3,13600	4657
3,14667	4649
3,15733	4667
3,16800	4728
3,17867	4821
3,18933	4920
3,20000	5009
3,21067	5077
3,22133	5114
3,23200	5129
3,24267	5162
3,25333	5248
3,26400	5404
3,27467	5679
3,28533	6091
3,29600	6643
3,30667	7338
3,31733	8125
3,32800	8958
3,33867	9747
3,34933	10383
3,36000	10775
3,37067	10871
3,38133	10662
3,39200	10174
3,40267	9483
3,41333	8693
3,42400	7863
3,43467	7076
3,44533	6399
3,45600	5858
3,46667	5464
3,47733	5222
3,48800	5123
3,49867	5123
3,50933	5081
3,52000	4876
3,53067	4478
3,54133	3986
3,55200	3521
3,56267	3130
3,57333	2840
3,58400	2641
3,59467	2519
3,60533	2459
3,61600	2452
3,62667	2466
3,63733	2533
3,64800	2623
3,65867	2734
3,66933	2883
3,68000	3065
3,69067	3282
3,70133	3560
3,71200	3901
3,72267	4318
3,73333	4801
3,74400	5353
3,75467	5974
3,76533	6646
3,77600	7348
3,78667	8042
3,79733	8676
3,80800	9230
3,81867	9671
3,82933	9957
3,84000	10098
3,85067	10077
3,86133	9903
3,87200	9603
3,88267	9191
3,89333	8695
3,90400	8149
3,91467	7588
3,92533	7048
3,93600	6532
3,94667	6057
3,95733	5665
3,96800	5330
3,97867	5095
3,98933	4956
4,00000	4924
4,01067	5000
4,02133	5210
4,03200	5548
4,04267	6023
4,05333	6629
4,06400	7339
4,07467	8123
4,08533	8896
4,09600	9582
4,10667	10104
4,11733	10403
4,12800	10457
4,13867	10281
4,14933	9899
4,16000	9370
4,17067	8777
4,18133	8172
4,19200	7598
4,20267	7076
4,21333	6642
4,22400	6279
4,23467	5986
4,24533	5764
4,25600	5596
4,26667	5471
4,27733	5378
4,28800	5290
4,29867	5226
4,30933	5180
4,32000	5130
4,33067	5069
4,34133	5009
4,35200	4942
4,36267	4867
4,37333	4789
4,38400	4711
4,39467	4643
4,40533	4571
4,41600	4512
4,42667	4463
4,43733	4411
4,44800	4368
4,45867	4344
4,46933	4332
4,48000	4315
4,49067	4312
4,50133	4298
4,51200	4296
4,52267	4282
4,53333	4253
4,54400	4237
4,55467	4213
4,56533	4196
4,57600	4185
4,58667	4189
4,59733	4214
4,60800	4253
4,61867	4305
4,62933	4385
4,64000	4475
4,65067	4566
4,66133	4654
4,67200	4715
4,68267	4769
4,69333	4784
4,70400	4792
4,71467	4795
4,72533	4786
4,73600	4772
4,74667	4778
4,75733	4789
4,76800	4821
4,77867	4867
4,78933	4921
4,80000	4973
4,81067	5029
4,82133	5073
4,83200	5092
4,84267	5090
4,85333	5086
4,86400	5067
4,87467	5036
4,88533	5013
4,89600	4995
4,90667	4989
4,91733	5002
4,92800	5042
4,93867	5090
4,94933	5157
4,96000	5220
4,97067	5282
4,98133	5355
4,99200	5417
5,00267	5472
5,01333	5515
5,02400	5537
5,03467	5540
5,04533	5529
5,05600	5499
5,06667	5454
5,07733	5382
5,08800	5308
5,09867	5216
5,10933	5110
5,12000	4990
5,13067	4869
5,14133	4733
5,15200	4594
5,16267	4457
5,17333	4325
5,18400	4199
5,19467	4075
5,20533	3963
5,21600	3866
5,22667	3779
5,23733	3717
5,24800	3659
5,25867	3619
5,26933	3600
5,28000	3600
5,29067	3642
5,30133	3723
5,31200	3840
5,32267	4012
5,33333	4253
5,34400	4559
5,35467	4947
5,36533	5434
5,37600	6033
5,38667	6740
5,39733	7582
5,40800	8546
5,41867	9648
5,42933	10859
5,44000	12148
5,45067	13489
5,46133	14807
5,47200	16051
5,48267	17138
5,49333	17996
5,50400	18583
5,51467	18837
5,52533	18756
5,53600	18348
5,54667	17654
5,55733	16729
5,56800	15627
5,57867	14426
5,58933	13203
5,60000	12009
5,61067	10883
5,62133	9866
5,63200	8961
5,64267	8189
5,65333	7529
5,66400	6987
5,67467	6548
5,68533	6196
5,69600	5918
5,70667	5697
5,71733	5532
5,72800	5378
5,73867	5241
5,74933	5113
5,76000	4987
5,77067	4845
5,78133	4702
5,79200	4557
5,80267	4399
5,81333	4256
5,82400	4109
5,83467	3971
5,84533	3864
5,85600	3778
5,86667	3696
5,87733	3664
5,88800	3645
5,89867	3663
5,90933	3705
5,92000	3793
5,93067	3910
5,94133	4059
5,95200	4246
5,96267	4456
5,97333	4701
5,98400	4965
5,99467	5229
6,00533	5497
6,01600	5735
6,02667	5936
6,03733	6097
6,04800	6205
6,05867	6266
6,06933	6276
6,08000	6250
6,09067	6198
6,10133	6129
6,11200	6062
6,12267	5997
6,13333	5996
6,14400	6066
6,15467	6243
6,16533	6624
6,17600	7338
6,18667	8583
6,19733	10711
6,20800	14278
6,21867	20144
6,22933	29524
6,24000	44285
6,25067	66741
6,26133	100043
6,27200	147156
6,28267	211714
6,29333	295845
6,30400	400817
6,31467	523785
6,32533	659749
6,33600	799913
6,34667	935084
6,35733	1055343
6,36800	1152738
6,37867	1222169
6,38933	1261433
6,40000	1270940
6,41067	1253370
6,42133	1212159
6,43200	1151835
6,44267	1076643
6,45333	991420
6,46400	899819
6,47467	805694
6,48533	711572
6,49600	620578
6,50667	534405
6,51733	454943
6,52800	382815
6,53867	318815
6,54933	262973
6,56000	215061
6,57067	174622
6,58133	140855
6,59200	113160
6,60267	90664
6,61333	72652
6,62400	58319
6,63467	47070
6,64533	38349
6,65600	31717
6,66667	26847
6,67733	23556
6,68800	21814
6,69867	21679
6,70933	23328
6,72000	26902
6,73067	32494
6,74133	39977
6,75200	49031
6,76267	59085
6,77333	69353
6,78400	79107
6,79467	87641
6,80533	94499
6,81600	99379
6,82667	102230
6,83733	103153
6,84800	102343
6,85867	100109
6,86933	96745
6,88000	92571
6,89067	87852
6,90133	82846
6,91200	77769
6,92267	72815
6,93333	68138
6,94400	63832
6,95467	59981
6,96533	56629
6,97600	53796
6,98667	51418
6,99733	49449
7,00800	47776
7,01867	46318
7,02933	44944
7,04000	43534
7,05067	42025
7,06133	40340
7,07200	38475
7,08267	36402
7,09333	34175
7,10400	31856
7,11467	29501
7,12533	27189
7,13600	24992
7,14667	22955
7,15733	21152
7,16800	19601
7,17867	18321
7,18933	17342
7,20000	16647
7,21067	16247
7,22133	16128
7,23200	16275
7,24267	16665
7,25333	17270
7,26400	18045
7,27467	18928
7,28533	19863
7,29600	20767
7,30667	21576
7,31733	22220
7,32800	22644
7,33867	22810
7,34933	22686
7,36000	22296
7,37067	21651
7,38133	20794
7,39200	19780
7,40267	18660
7,41333	17499
7,42400	16344
7,43467	15224
7,44533	14169
7,45600	13206
7,46667	12328
7,47733	11550
7,48800	10855
7,49867	10248
7,50933	9720
7,52000	9270
7,53067	8882
7,54133	8571
7,55200	8308
7,56267	8114
7,57333	7973
7,58400	7883
7,59467	7841
7,60533	7831
7,61600	7842
7,62667	7860
7,63733	7905
7,64800	7943
7,65867	7972
7,66933	7983
7,68000	7992
7,69067	7989
7,70133	7981
7,71200	7986
7,72267	7993
7,73333	8008
7,74400	8037
7,75467	8069
7,76533	8106
7,77600	8145
7,78667	8179
7,79733	8202
7,80800	8208
7,81867	8190
7,82933	8158
7,84000	8094
7,85067	8009
7,86133	7912
7,87200	7812
7,88267	7714
7,89333	7624
7,90400	7566
7,91467	7529
7,92533	7511
7,93600	7540
7,94667	7598
7,95733	7693
7,96800	7816
7,97867	7958
7,98933	8100
8,00000	8236
8,01067	8365
8,02133	8453
8,03200	8511
8,04267	8515
8,05333	8479
8,06400	8411
8,07467	8326
8,08533	8241
8,09600	8178
8,10667	8170
8,11733	8238
8,12800	8412
8,13867	8695
8,14933	9091
8,16000	9569
8,17067	10128
8,18133	10699
8,19200	11261
8,20267	11748
8,21333	12132
8,22400	12374
8,23467	12484
8,24533	12459
8,25600	12313
8,26667	12083
8,27733	11817
8,28800	11559
8,29867	11346
8,30933	11210
8,32000	11183
8,33067	11278
8,34133	11504
8,35200	11820
8,36267	12229
8,37333	12686
8,38400	13159
8,39467	13601
8,40533	13966
8,41600	14218
8,42667	14348
8,43733	14348
8,44800	14213
8,45867	13953
8,46933	13609
8,48000	13190
8,49067	12759
8,50133	12325
8,51200	11939
8,52267	11612
8,53333	11397
8,54400	11304
8,55467	11387
8,56533	11688
8,57600	12266
8,58667	13167
8,59733	14447
8,60800	16141
8,61867	18284
8,62933	20865
8,64000	23824
8,65067	27064
8,66133	30446
8,67200	33762
8,68267	36812
8,69333	39375
8,70400	41272
8,71467	42355
8,72533	42543
8,73600	41852
8,74667	40367
8,75733	38195
8,76800	35543
8,77867	32582
8,78933	29526
8,80000	26509
8,81067	23698
8,82133	21146
8,83200	18932
8,84267	17054
8,85333	15507
8,86400	14267
8,87467	13290
8,88533	12536
8,89600	11966
8,90667	11565
8,91733	11282
8,92800	11092
8,93867	10983
8,94933	10929
8,96000	10922
8,97067	10935
8,98133	10953
8,99200	10957
9,00267	10925
9,01333	10880
9,02400	10793
9,03467	10666
9,04533	10491
9,05600	10276
9,06667	10045
9,07733	9793
9,08800	9523
9,09867	9257
9,10933	8983
9,12000	8721
9,13067	8458
9,14133	8221
9,15200	7986
9,16267	7769
9,17333	7576
9,18400	7411
9,19467	7278
9,20533	7168
9,21600	7096
9,22667	7058
9,23733	7052
9,24800	7083
9,25867	7138
9,26933	7230
9,28000	7346
9,29067	7466
9,30133	7610
9,31200	7744
9,32267	7874
9,33333	8003
9,34400	8128
9,35467	8231
9,36533	8326
9,37600	8405
9,38667	8497
9,39733	8577
9,40800	8671
9,41867	8791
9,42933	8931
9,44000	9105
9,45067	9323
9,46133	9576
9,47200	9862
9,48267	10173
9,49333	10487
9,50400	10794
9,51467	11075
9,52533	11322
9,53600	11515
9,54667	11661
9,55733	11765
9,56800	11841
9,57867	11922
9,58933	12053
9,60000	12250
9,61067	12584
9,62133	13091
9,63200	13780
9,64267	14676
9,65333	15770
9,66400	17037
9,67467	18430
9,68533	19875
9,69600	21278
9,70667	22565
9,71733	23637
9,72800	24406
9,73867	24825
9,74933	24882
9,76000	24568
9,77067	23926
9,78133	23010
9,79200	21918
9,80267	20712
9,81333	19490
9,82400	18304
9,83467	17206
9,84533	16218
9,85600	15368
9,86667	14645
9,87733	14023
9,88800	13489
9,89867	13032
9,90933	12624
9,92000	12258
9,93067	11923
9,94133	11654
9,95200	11406
9,96267	11232
9,97333	11146
9,98400	11162
9,99467	11308
10,00533	11623
10,01600	12129
10,02667	12843
10,03733	13794
10,04800	15005
10,05867	16499
10,06933	18267
10,08000	20319
10,09067	22627
10,10133	25163
10,11200	27846
10,12267	30606
10,13333	33322
10,14400	35875
10,15467	38105
10,16533	39902
10,17600	41151
10,18667	41780
10,19733	41799
10,20800	41231
10,21867	40164
10,22933	38723
10,24000	37061
10,25067	35303
10,26133	33596
10,27200	31991
10,28267	30535
10,29333	29255
10,30400	28135
10,31467	27144
10,32533	26240
10,33600	25439
10,34667	24764
10,35733	24270
10,36800	24023
10,37867	24123
10,38933	24651
10,40000	25644
10,41067	27142
10,42133	29100
10,43200	31436
10,44267	33983
10,45333	36578
10,46400	38980
10,47467	40999
10,48533	42424
10,49600	43111
10,50667	42982
10,51733	42035
10,52800	40347
10,53867	38036
10,54933	35276
10,56000	32252
10,57067	29143
10,58133	26122
10,59200	23291
10,60267	20761
10,61333	18550
10,62400	16694
10,63467	15172
10,64533	13956
10,65600	13013
10,66667	12299
10,67733	11782
10,68800	11415
10,69867	11170
10,70933	11016
10,72000	10936
10,73067	10908
10,74133	10926
10,75200	10972
10,76267	11051
10,77333	11130
10,78400	11217
10,79467	11303
10,80533	11390
10,81600	11465
10,82667	11526
10,83733	11560
10,84800	11563
10,85867	11545
10,86933	11530
10,88000	11551
10,89067	11692
10,90133	12093
10,91200	12994
10,92267	14762
10,93333	17971
10,94400	23406
10,95467	32248
10,96533	45856
10,97600	66051
10,98667	94522
10,99733	133149
11,00800	183214
11,01867	245413
11,02933	319585
11,04000	404216
11,05067	497505
11,06133	595765
11,07200	695529
11,08267	791906
11,09333	881027
11,10400	958084
11,11467	1019566
11,12533	1061953
11,13600	1083409
11,14667	1083443
11,15733	1062707
11,16800	1023479
11,17867	968611
11,18933	901675
11,20000	826509
11,21067	746614
11,22133	665604
11,23200	585814
11,24267	509871
11,25333	439043
11,26400	374760
11,27467	317199
11,28533	266661
11,29600	222705
11,30667	185185
11,31733	153361
11,32800	126763
11,33867	104636
11,34933	86426
11,36000	71542
11,37067	59439
11,38133	49650
11,39200	41746
11,40267	35412
11,41333	30343
11,42400	26292
11,43467	23057
11,44533	20483
11,45600	18434
11,46667	16803
11,47733	15489
11,48800	14438
11,49867	13595
11,50933	12911
11,52000	12348
11,53067	11896
11,54133	11524
11,55200	11215
11,56267	10973
11,57333	10786
11,58400	10646
11,59467	10556
11,60533	10495
11,61600	10472
11,62667	10473
11,63733	10500
11,64800	10551
11,65867	10634
11,66933	10743
11,68000	10877
11,69067	11053
11,70133	11272
11,71200	11521
11,72267	11820
11,73333	12145
11,74400	12485
11,75467	12826
11,76533	13164
11,77600	13470
11,78667	13724
11,79733	13911
11,80800	14034
11,81867	14090
11,82933	14072
11,84000	14004
11,85067	13905
11,86133	13772
11,87200	13629
11,88267	13481
11,89333	13339
11,90400	13195
11,91467	13042
11,92533	12871
11,93600	12679
11,94667	12464
11,95733	12212
11,96800	11925
11,97867	11624
11,98933	11312
12,00000	11006
12,01067	10751
12,02133	10551
12,03200	10433
12,04267	10433
12,05333	10573
12,06400	10881
12,07467	11391
12,08533	12138
12,09600	13129
12,10667	14391
12,11733	15909
12,12800	17676
12,13867	19642
12,14933	21707
12,16000	23800
12,17067	25809
12,18133	27607
12,19200	29077
12,20267	30130
12,21333	30687
12,22400	30727
12,23467	30244
12,24533	29299
12,25600	27955
12,26667	26330
12,27733	24505
12,28800	22617
12,29867	20747
12,30933	18970
12,32000	17362
12,33067	15953
12,34133	14750
12,35200	13785
12,36267	13013
12,37333	12435
12,38400	12013
12,39467	11737
12,40533	11580
12,41600	11501
12,42667	11482
12,43733	11501
12,44800	11553
12,45867	11616
12,46933	11690
12,48000	11782
12,49067	11875
12,50133	11976
12,51200	12086
12,52267	12200
12,53333	12319
12,54400	12432
12,55467	12539
12,56533	12632
12,57600	12696
12,58667	12724
12,59733	12741
12,60800	12726
12,61867	12697
12,62933	12669
12,64000	12648
12,65067	12666
12,66133	12726
12,67200	12837
12,68267	13009
12,69333	13255
12,70400	13564
12,71467	13942
12,72533	14362
12,73600	14818
12,74667	15269
12,75733	15694
12,76800	16042
12,77867	16293
12,78933	16433
12,80000	16426
12,81067	16277
12,82133	15990
12,83200	15584
12,84267	15107
12,85333	14577
12,86400	14043
12,87467	13549
12,88533	13096
12,89600	12733
12,90667	12467
12,91733	12303
12,92800	12248
12,93867	12293
12,94933	12423
12,96000	12615
12,97067	12866
12,98133	13155
12,99200	13462
13,00267	13784
13,01333	14204
13,02400	15060
13,03467	17453
13,04533	24370
13,05600	41308
13,06667	75271
13,07733	129719
13,08800	201784
13,09867	281516
13,10933	357741
13,12000	421564
13,13067	469236
13,14133	500772
13,15200	518556
13,16267	525701
13,17333	525023
13,18400	518733
13,19467	508459
13,20533	495269
13,21600	479972
13,22667	463025
13,23733	444953
13,24800	426024
13,25867	406625
13,26933	386921
13,28000	367253
13,29067	347782
13,30133	328775
13,31200	310299
13,32267	292482
13,33333	275467
13,34400	259245
13,35467	243866
13,36533	229286
13,37600	215578
13,38667	202652
13,39733	190557
13,40800	179199
13,41867	168593
13,42933	158678
13,44000	149449
13,45067	140829
13,46133	132809
13,47200	125311
13,48267	118362
13,49333	111846
13,50400	105759
13,51467	100061
13,52533	94722
13,53600	89723
13,54667	85015
13,55733	80603
13,56800	76465
13,57867	72595
13,58933	68957
13,60000	65563
13,61067	62378
13,62133	59404
13,63200	56603
13,64267	53990
13,65333	51536
13,66400	49223
13,67467	47046
13,68533	44980
13,69600	43030
13,70667	41177
13,71733	39421
13,72800	37737
13,73867	36152
13,74933	34625
13,76000	33201
13,77067	31865
13,78133	30629
13,79200	29480
13,80267	28428
13,81333	27486
13,82400	26636
13,83467	25855
13,84533	25167
13,85600	24530
13,86667	23951
13,87733	23430
13,88800	22948
13,89867	22501
13,90933	22096
13,92000	21718
13,93067	21365
13,94133	21025
13,95200	20701
13,96267	20381
13,97333	20064
13,98400	19755
13,99467	19449
14,00533	19152
14,01600	18864
14,02667	18607
14,03733	18366
14,04800	18166
14,05867	18014
14,06933	17908
14,08000	17871
14,09067	17916
14,10133	18053
14,11200	18306
14,12267	18693
14,13333	19208
14,14400	19881
14,15467	20693
14,16533	21647
14,17600	22719
14,18667	23872
14,19733	25081
14,20800	26262
14,21867	27383
14,22933	28354
14,24000	29132
14,25067	29662
14,26133	29920
14,27200	29884
14,28267	29574
14,29333	29021
14,30400	28261
14,31467	27331
14,32533	26307
14,33600	25239
14,34667	24172
14,35733	23159
14,36800	22209
14,37867	21322
14,38933	20552
14,40000	19875
14,41067	19298
14,42133	18810
14,43200	18433
14,44267	18136
14,45333	17947
14,46400	17844
14,47467	17842
14,48533	17923
14,49600	18071
14,50667	18282
14,51733	18549
14,52800	18842
14,53867	19154
14,54933	19465
14,56000	19756
14,57067	20031
14,58133	20288
14,59200	20506
14,60267	20691
14,61333	20864
14,62400	21023
14,63467	21178
14,64533	21325
14,65600	21485
14,66667	21649
14,67733	21816
14,68800	21967
14,69867	22121
14,70933	22236
14,72000	22313
14,73067	22344
14,74133	22317
14,75200	22231
14,76267	22081
14,77333	21864
14,78400	21605
14,79467	21311
14,80533	20994
14,81600	20661
14,82667	20347
14,83733	20041
14,84800	19783
14,85867	19572
14,86933	19427
14,88000	19351
14,89067	19359
14,90133	19462
14,91200	19689
14,92267	20050
14,93333	20548
14,94400	21175
14,95467	21954
14,96533	22845
14,97600	23827
14,98667	24854
14,99733	25857
15,00800	26786
15,01867	27576
15,02933	28154
15,04000	28478
15,05067	28530
15,06133	28300
15,07200	27814
15,08267	27116
15,09333	26254
15,10400	25291
15,11467	24305
15,12533	23352
15,13600	22477
15,14667	21721
15,15733	21098
15,16800	20606
15,17867	20250
15,18933	20008
15,20000	19863
15,21067	19798
15,22133	19773
15,23200	19785
15,24267	19818
15,25333	19856
15,26400	19915
15,27467	19983
15,28533	20073
15,29600	20188
15,30667	20330
15,31733	20493
15,32800	20671
15,33867	20860
15,34933	21019
15,36000	21155
15,37067	21249
15,38133	21295
15,39200	21280
15,40267	21212
15,41333	21118
15,42400	21003
15,43467	20883
15,44533	20782
15,45600	20720
15,46667	20696
15,47733	20732
15,48800	20840
15,49867	21007
15,50933	21237
15,52000	21537
15,53067	21912
15,54133	22349
15,55200	22837
15,56267	23380
15,57333	23965
15,58400	24589
15,59467	25230
15,60533	25890
15,61600	26530
15,62667	27117
15,63733	27616
15,64800	27991
15,65867	28210
15,66933	28251
15,68000	28116
15,69067	27811
15,70133	27341
15,71200	26751
15,72267	26080
15,73333	25367
15,74400	24638
15,75467	23917
15,76533	23228
15,77600	22589
15,78667	21997
15,79733	21467
15,80800	21011
15,81867	20621
15,82933	20329
15,84000	20122
15,85067	20032
15,86133	20068
15,87200	20207
15,88267	20461
15,89333	20812
15,90400	21221
15,91467	21678
15,92533	22138
15,93600	22570
15,94667	22933
15,95733	23208
15,96800	23368
15,97867	23402
15,98933	23323
16,00000	23138
16,01067	22871
16,02133	22556
16,03200	22219
16,04267	21897
16,05333	21609
16,06400	21385
16,07467	21234
16,08533	21167
16,09600	21184
16,10667	21284
16,11733	21444
16,12800	21678
16,13867	21972
16,14933	22309
16,16000	22676
16,17067	23057
16,18133	23447
16,19200	23808
16,20267	24150
16,21333	24448
16,22400	24688
16,23467	24878
16,24533	24997
16,25600	25059
16,26667	25057
16,27733	25007
16,28800	24905
16,29867	24739
16,30933	24527
16,32000	24246
16,33067	23919
16,34133	23541
16,35200	23131
16,36267	22695
16,37333	22260
16,38400	21826
16,39467	21430
16,40533	21083
16,41600	20820
16,42667	20627
16,43733	20530
16,44800	20503
16,45867	20553
16,46933	20651
16,48000	20785
16,49067	20925
16,50133	21058
16,51200	21184
16,52267	21271
16,53333	21333
16,54400	21363
16,55467	21362
16,56533	21349
16,57600	21329
16,58667	21309
16,59733	21280
16,60800	21264
16,61867	21250
16,62933	21247
16,64000	21231
16,65067	21220
16,66133	21205
16,67200	21192
16,68267	21162
16,69333	21130
16,70400	21101
16,71467	21090
16,72533	21093
16,73600	21125
16,74667	21188
16,75733	21289
16,76800	21428
16,77867	21586
16,78933	21777
16,80000	21974
16,81067	22161
16,82133	22340
16,83200	22464
16,84267	22565
16,85333	22605
16,86400	22590
16,87467	22522
16,88533	22401
16,89600	22274
16,90667	22122
16,91733	21988
16,92800	21864
16,93867	21784
16,94933	21765
16,96000	21809
16,97067	21909
16,98133	22049
16,99200	22215
17,00267	22405
17,01333	22581
17,02400	22726
17,03467	22816
17,04533	22838
17,05600	22788
17,06667	22664
17,07733	22467
17,08800	22211
17,09867	21909
17,10933	21573
17,12000	21220
17,13067	20877
17,14133	20530
17,15200	20210
17,16267	19907
17,17333	19630
17,18400	19387
17,19467	19191
17,20533	19039
17,21600	18924
17,22667	18860
17,23733	18832
17,24800	18850
17,25867	18897
17,26933	18983
17,28000	19090
17,29067	19208
17,30133	19337
17,31200	19466
17,32267	19590
17,33333	19669
17,34400	19749
17,35467	19816
17,36533	19862
17,37600	19924
17,38667	19989
17,39733	20082
17,40800	20225
17,41867	20412
17,42933	20662
17,44000	20970
17,45067	21340
17,46133	21765
17,47200	22229
17,48267	22722
17,49333	23235
17,50400	23754
17,51467	24261
17,52533	24755
17,53600	25242
17,54667	25716
17,55733	26215
17,56800	26726
17,57867	27282
17,58933	27897
17,60000	28580
17,61067	29331
17,62133	30144
17,63200	30983
17,64267	31793
17,65333	32538
17,66400	33155
17,67467	33598
17,68533	33831
17,69600	33826
17,70667	33608
17,71733	33181
17,72800	32592
17,73867	31898
17,74933	31141
17,76000	30357
17,77067	29588
17,78133	28873
17,79200	28221
17,80267	27650
17,81333	27159
17,82400	26751
17,83467	26436
17,84533	26208
17,85600	26051
17,86667	25964
17,87733	25939
17,88800	25949
17,89867	25979
17,90933	25982
17,92000	25960
17,93067	25885
17,94133	25738
17,95200	25519
17,96267	25245
17,97333	24911
17,98400	24561
17,99467	24178
18,00533	23815
18,01600	23481
18,02667	23205
18,03733	22982
18,04800	22823
18,05867	22728
18,06933	22694
18,08000	22698
18,09067	22741
18,10133	22807
18,11200	22869
18,12267	22933
18,13333	22976
18,14400	22994
18,15467	22982
18,16533	22954
18,17600	22902
18,18667	22838
18,19733	22744
18,20800	22636
18,21867	22510
18,22933	22400
18,24000	22277
18,25067	22167
18,26133	22051
18,27200	21962
18,28267	21893
18,29333	21864
18,30400	21860
18,31467	21912
18,32533	21987
18,33600	22105
18,34667	22253
18,35733	22432
18,36800	22638
18,37867	22849
18,38933	23096
18,40000	23372
18,41067	23659
18,42133	23973
18,43200	24311
18,44267	24667
18,45333	25035
18,46400	25389
18,47467	25730
18,48533	26016
18,49600	26217
18,50667	26333
18,51733	26335
18,52800	26232
18,53867	26013
18,54933	25708
18,56000	25322
18,57067	24897
18,58133	24455
18,59200	24029
18,60267	23631
18,61333	23302
18,62400	23034
18,63467	22835
18,64533	22704
18,65600	22625
18,66667	22616
18,67733	22637
18,68800	22679
18,69867	22735
18,70933	22796
18,72000	22847
18,73067	22901
18,74133	22937
18,75200	22949
18,76267	22940
18,77333	22910
18,78400	22864
18,79467	22805
18,80533	22736
18,81600	22648
18,82667	22574
18,83733	22493
18,84800	22440
18,85867	22406
18,86933	22404
18,88000	22441
18,89067	22525
18,90133	22650
18,91200	22810
18,92267	23007
18,93333	23226
18,94400	23468
18,95467	23713
18,96533	23976
18,97600	24245
18,98667	24522
18,99733	24791
19,00800	25067
19,01867	25364
19,02933	25643
19,04000	25914
19,05067	26180
19,06133	26420
19,07200	26636
19,08267	26817
19,09333	26964
19,10400	27075
19,11467	27155
19,12533	27191
19,13600	27216
19,14667	27237
19,15733	27260
19,16800	27301
19,17867	27369
19,18933	27487
19,20000	27648
19,21067	27874
19,22133	28159
19,23200	28506
19,24267	28880
19,25333	29288
19,26400	29672
19,27467	30024
19,28533	30310
19,29600	30473
19,30667	30531
19,31733	30453
19,32800	30232
19,33867	29878
19,34933	29408
19,36000	28854
19,37067	28260
19,38133	27645
19,39200	27070
19,40267	26532
19,41333	26080
19,42400	25707
19,43467	25443
19,44533	25309
19,45600	25323
19,46667	25555
19,47733	26081
19,48800	27048
19,49867	28670
19,50933	31258
19,52000	35171
19,53067	40874
19,54133	48836
19,55200	59536
19,56267	73299
19,57333	90273
19,58400	110331
19,59467	132840
19,60533	156920
19,61600	181109
19,62667	203999
19,63733	223854
19,64800	239235
19,65867	248967
19,66933	252430
19,68000	249573
19,69067	240770
19,70133	227045
19,71200	209510
19,72267	189598
19,73333	168617
19,74400	147744
19,75467	127947
19,76533	109829
19,77600	93852
19,78667	80110
19,79733	68600
19,80800	59117
19,81867	51450
19,82933	45319
19,84000	40511
19,85067	36776
19,86133	33951
19,87200	31881
19,88267	30483
19,89333	29670
19,90400	29390
19,91467	29599
19,92533	30254
19,93600	31275
19,94667	32611
19,95733	34153
19,96800	35800
19,97867	37418
19,98933	38876
20,00000	40057
20,01067	40858
20,02133	41221
20,03200	41122
20,04267	40560
20,05333	39589
20,06400	38312
20,07467	36812
20,08533	35212
20,09600	33601
20,10667	32087
20,11733	30776
20,12800	29720
20,13867	29026
20,14933	28836
20,16000	29356
20,17067	30906
20,18133	33984
20,19200	39378
20,20267	48145
20,21333	61849
20,22400	82342
20,23467	112051
20,24533	153233
20,25600	208479
20,26667	279269
20,27733	366363
20,28800	468353
20,29867	581375
20,30933	700100
20,32000	816584
20,33067	923610
20,34133	1013036
20,35200	1079480
20,36267	1118919
20,37333	1129852
20,38400	1113167
20,39467	1071323
20,40533	1008800
20,41600	930020
20,42667	840894
20,43733	746265
20,44800	651085
20,45867	559116
20,46933	473422
20,48000	396243
20,49067	328358
20,50133	270205
20,51200	221145
20,52267	180700
20,53333	147686
20,54400	121152
20,55467	99939
20,56533	83199
20,57600	70045
20,58667	59793
20,59733	51818
20,60800	45696
20,61867	41031
20,62933	37515
20,64000	34906
20,65067	33010
20,66133	31665
20,67200	30739
20,68267	30144
20,69333	29779
20,70400	29584
20,71467	29515
20,72533	29508
20,73600	29544
20,74667	29591
20,75733	29610
20,76800	29606
20,77867	29537
20,78933	29417
20,80000	29225
20,81067	28968
20,82133	28676
20,83200	28360
20,84267	28030
20,85333	27718
20,86400	27445
20,87467	27218
20,88533	27049
20,89600	26939
20,90667	26891
20,91733	26889
20,92800	26947
20,93867	27049
20,94933	27197
20,96000	27398
20,97067	27651
20,98133	27986
20,99200	28395
21,00267	28897
21,01333	29500
21,02400	30203
21,03467	30996
21,04533	31863
21,05600	32758
21,06667	33642
21,07733	34475
21,08800	35213
21,09867	35776
21,10933	36136
21,12000	36256
21,13067	36122
21,14133	35717
21,15200	35091
21,16267	34277
21,17333	33321
21,18400	32303
21,19467	31264
21,20533	30298
21,21600	29434
21,22667	28709
21,23733	28156
21,24800	27790
21,25867	27617
21,26933	27620
21,28000	27790
21,29067	28113
21,30133	28570
21,31200	29185
21,32267	29943
21,33333	30877
21,34400	32002
21,35467	33368
21,36533	35005
21,37600	37001
21,38667	39450
21,39733	42518
21,40800	46421
21,41867	51495
21,42933	58121
21,44000	66829
21,45067	78112
21,46133	92601
21,47200	110704
21,48267	132812
21,49333	158874
21,50400	188744
21,51467	221618
21,52533	256434
21,53600	291644
21,54667	325462
21,55733	356181
21,56800	381879
21,57867	401122
21,58933	412738
21,60000	416203
21,61067	411530
21,62133	399196
21,63200	380259
21,64267	355872
21,65333	327646
21,66400	296938
21,67467	265379
21,68533	234101
21,69600	204224
21,70667	176478
21,71733	151394
21,72800	129290
21,73867	110119
21,74933	93870
21,76000	80257
21,77067	69084
21,78133	59971
21,79200	52644
21,80267	46787
21,81333	42170
21,82400	38537
21,83467	35714
21,84533	33535
21,85600	31886
21,86667	30637
21,87733	29724
21,88800	29067
21,89867	28608
21,90933	28288
21,92000	28101
21,93067	27985
21,94133	27935
21,95200	27923
21,96267	27929
21,97333	27945
21,98400	27962
21,99467	27963
22,00533	27975
22,01600	27976
22,02667	27996
22,03733	28028
22,04800	28082
22,05867	28163
22,06933	28248
22,08000	28335
22,09067	28416
22,10133	28459
22,11200	28445
22,12267	28367
22,13333	28225
22,14400	28013
22,15467	27767
22,16533	27467
22,17600	27158
22,18667	26866
22,19733	26606
22,20800	26416
22,21867	26286
22,22933	26245
22,24000	26278
22,25067	26378
22,26133	26536
22,27200	26726
22,28267	26930
22,29333	27134
22,30400	27316
22,31467	27460
22,32533	27573
22,33600	27669
22,34667	27754
22,35733	27831
22,36800	27924
22,37867	28050
22,38933	28216
22,40000	28416
22,41067	28635
22,42133	28854
22,43200	29042
22,44267	29179
22,45333	29227
22,46400	29144
22,47467	28947
22,48533	28632
22,49600	28207
22,50667	27692
22,51733	27139
22,52800	26584
22,53867	26101
22,54933	25742
22,56000	25617
22,57067	25869
22,58133	26688
22,59200	28360
22,60267	31293
22,61333	36005
22,62400	43200
22,63467	53617
22,64533	68217
22,65600	87705
22,66667	112877
22,67733	143832
22,68800	180503
22,69867	221728
22,70933	266099
22,72000	311129
22,73067	354254
22,74133	392418
22,75200	423154
22,76267	444361
22,77333	454784
22,78400	454159
22,79467	443110
22,80533	422898
22,81600	395595
22,82667	363214
22,83733	328218
22,84800	292323
22,85867	257419
22,86933	224605
22,88000	194854
22,89067	168407
22,90133	145461
22,91200	125790
22,92267	109155
22,93333	95124
22,94400	83345
22,95467	73463
22,96533	65124
22,97600	58109
22,98667	52157
22,99733	47132
23,00800	42887
23,01867	39308
23,02933	36287
23,04000	33789
23,05067	31711
23,06133	30027
23,07200	28682
23,08267	27642
23,09333	26861
23,10400	26321
23,11467	25998
23,12533	25861
23,13600	25908
23,14667	26115
23,15733	26470
23,16800	26957
23,17867	27543
23,18933	28214
23,20000	28905
23,21067	29572
23,22133	30168
23,23200	30629
23,24267	30943
23,25333	31063
23,26400	30979
23,27467	30697
23,28533	30231
23,29600	29621
23,30667	28901
23,31733	28107
23,32800	27265
23,33867	26421
23,34933	25624
23,36000	24867
23,37067	24170
23,38133	23554
23,39200	23018
23,40267	22572
23,41333	22193
23,42400	21888
23,43467	21653
23,44533	21491
23,45600	21388
23,46667	21340
23,47733	21358
23,48800	21432
23,49867	21575
23,50933	21790
23,52000	22090
23,53067	22494
23,54133	23003
23,55200	23634
23,56267	24380
23,57333	25236
23,58400	26162
23,59467	27109
23,60533	28040
23,61600	28883
23,62667	29579
23,63733	30072
23,64800	30336
23,65867	30331
23,66933	30077
23,68000	29602
23,69067	28937
23,70133	28164
23,71200	27301
23,72267	26429
23,73333	25602
23,74400	24834
23,75467	24155
23,76533	23565
23,77600	23091
23,78667	22689
23,79733	22376
23,80800	22132
23,81867	21940
23,82933	21781
23,84000	21654
23,85067	21572
23,86133	21501
23,87200	21436
23,88267	21378
23,89333	21340
23,90400	21309
23,91467	21308
23,92533	21349
23,93600	21467
23,94667	21699
23,95733	22069
23,96800	22662
23,97867	23536
23,98933	24773
24,00000	26490
24,01067	28755
24,02133	31689
24,03200	35399
24,04267	39939
24,05333	45377
24,06400	51670
24,07467	58776
24,08533	66477
24,09600	74600
24,10667	82775
24,11733	90668
24,12800	97865
24,13867	104011
24,14933	108728
24,16000	111759
24,17067	112921
24,18133	112188
24,19200	109630
24,20267	105439
24,21333	99907
24,22400	93372
24,23467	86185
24,24533	78750
24,25600	71347
24,26667	64297
24,27733	57774
24,28800	51959
24,29867	46883
24,30933	42574
24,32000	38995
24,33067	36082
24,34133	33746
24,35200	31897
24,36267	30434
24,37333	29277
24,38400	28334
24,39467	27566
24,40533	26906
24,41600	26322
24,42667	25818
24,43733	25358
24,44800	24953
24,45867	24582
24,46933	24285
24,48000	24053
24,49067	23903
24,50133	23839
24,51200	23887
24,52267	24081
24,53333	24447
24,54400	24994
24,55467	25749
24,56533	26733
24,57600	27920
24,58667	29287
24,59733	30789
24,60800	32359
24,61867	33924
24,62933	35373
24,64000	36647
24,65067	37631
24,66133	38291
24,67200	38550
24,68267	38404
24,69333	37867
24,70400	36969
24,71467	35777
24,72533	34370
24,73600	32825
24,74667	31225
24,75733	29632
24,76800	28128
24,77867	26746
24,78933	25526
24,80000	24492
24,81067	23656
24,82133	23006
24,83200	22551
24,84267	22286
24,85333	22200
24,86400	22283
24,87467	22526
24,88533	22910
24,89600	23428
24,90667	24038
24,91733	24708
24,92800	25410
24,93867	26095
24,94933	26722
24,96000	27275
24,97067	27740
24,98133	28133
24,99200	28443
25,00267	28723
25,01333	29001
25,02400	29343
25,03467	29762
25,04533	30299
25,05600	30915
25,06667	31605
25,07733	32329
25,08800	32993
25,09867	33542
25,10933	33906
25,12000	34026
25,13067	33868
25,14133	33424
25,15200	32727
25,16267	31803
25,17333	30720
25,18400	29546
25,19467	28340
25,20533	27163
25,21600	26058
25,22667	25061
25,23733	24190
25,24800	23448
25,25867	22825
25,26933	22311
25,28000	21880
25,29067	21522
25,30133	21207
25,31200	20935
25,32267	20668
25,33333	20408
25,34400	20164
25,35467	19915
25,36533	19682
25,37600	19452
25,38667	19240
25,39733	19052
25,40800	18885
25,41867	18766
25,42933	18683
25,44000	18663
25,45067	18695
25,46133	18804
25,47200	18977
25,48267	19228
25,49333	19559
25,50400	19982
25,51467	20468
25,52533	21011
25,53600	21594
25,54667	22186
25,55733	22756
25,56800	23290
25,57867	23729
25,58933	24083
25,60000	24307
25,61067	24414
25,62133	24429
25,63200	24354
25,64267	24249
25,65333	24155
25,66400	24121
25,67467	24186
25,68533	24381
25,69600	24723
25,70667	25211
25,71733	25819
25,72800	26500
25,73867	27195
25,74933	27836
25,76000	28343
25,77067	28667
25,78133	28762
25,79200	28620
25,80267	28244
25,81333	27654
25,82400	26896
25,83467	26038
25,84533	25131
25,85600	24226
25,86667	23362
25,87733	22574
25,88800	21886
25,89867	21298
25,90933	20806
25,92000	20409
25,93067	20103
25,94133	19860
25,95200	19652
25,96267	19482
25,97333	19336
25,98400	19206
25,99467	19080
26,00533	18964
26,01600	18864
26,02667	18768
26,03733	18683
26,04800	18596
26,05867	18525
26,06933	18464
26,08000	18407
26,09067	18348
26,10133	18303
26,11200	18266
26,12267	18234
26,13333	18207
26,14400	18176
26,15467	18150
26,16533	18140
26,17600	18129
26,18667	18111
26,19733	18097
26,20800	18074
26,21867	18049
26,22933	18018
26,24000	17993
26,25067	17963
26,26133	17931
26,27200	17888
26,28267	17852
26,29333	17793
26,30400	17749
26,31467	17701
26,32533	17655
26,33600	17601
26,34667	17553
26,35733	17500
26,36800	17438
26,37867	17384
26,38933	17320
26,40000	17258
26,41067	17203
26,42133	17153
26,43200	17103
26,44267	17060
26,45333	17038
26,46400	17030
26,47467	17010
26,48533	17032
26,49600	17053
26,50667	17084
26,51733	17113
26,52800	17151
26,53867	17184
26,54933	17214
26,56000	17232
26,57067	17244
26,58133	17232
26,59200	17215
26,60267	17193
26,61333	17172
26,62400	17154
26,63467	17135
26,64533	17127
26,65600	17119
26,66667	17119
26,67733	17122
26,68800	17123
26,69867	17119
26,70933	17123
26,72000	17118
26,73067	17106
26,74133	17107
26,75200	17104
26,76267	17101
26,77333	17099
26,78400	17081
26,79467	17086
26,80533	17094
26,81600	17110
26,82667	17145
26,83733	17194
26,84800	17269
26,85867	17366
26,86933	17517
26,88000	17721
26,89067	17982
26,90133	18311
26,91200	18722
26,92267	19199
26,93333	19736
26,94400	20310
26,95467	20893
26,96533	21459
26,97600	21967
26,98667	22383
26,99733	22688
27,00800	22847
27,01867	22863
27,02933	22739
27,04000	22488
27,05067	22136
27,06133	21707
27,07200	21232
27,08267	20740
27,09333	20248
27,10400	19779
27,11467	19345
27,12533	18951
27,13600	18593
27,14667	18286
27,15733	18004
27,16800	17756
27,17867	17529
27,18933	17321
27,20000	17139
27,21067	16975
27,22133	16820
27,23200	16687
27,24267	16553
27,25333	16436
27,26400	16342
27,27467	16262
27,28533	16203
27,29600	16156
27,30667	16142
27,31733	16135
27,32800	16164
27,33867	16222
27,34933	16302
27,36000	16400
27,37067	16521
27,38133	16652
27,39200	16789
27,40267	16934
27,41333	17059
27,42400	17176
27,43467	17269
27,44533	17338
27,45600	17377
27,46667	17398
27,47733	17404
27,48800	17398
27,49867	17377
27,50933	17365
27,52000	17377
27,53067	17391
27,54133	17426
27,55200	17461
27,56267	17497
27,57333	17537
27,58400	17575
27,59467	17602
27,60533	17611
27,61600	17593
27,62667	17559
27,63733	17489
27,64800	17406
27,65867	17304
27,66933	17189
27,68000	17052
27,69067	16920
27,70133	16776
27,71200	16631
27,72267	16488
27,73333	16343
27,74400	16204
27,75467	16072
27,76533	15950
27,77600	15842
27,78667	15734
27,79733	15639
27,80800	15561
27,81867	15499
27,82933	15454
27,84000	15411
27,85067	15383
27,86133	15362
27,87200	15350
27,88267	15356
27,89333	15372
27,90400	15392
27,91467	15418
27,92533	15446
27,93600	15475
27,94667	15487
27,95733	15509
27,96800	15528
27,97867	15544
27,98933	15553
28,00000	15568
28,01067	15572
28,02133	15584
28,03200	15582
28,04267	15594
28,05333	15627
28,06400	15655
28,07467	15680
28,08533	15715
28,09600	15760
28,10667	15801
28,11733	15844
28,12800	15875
28,13867	15901
28,14933	15939
28,16000	15962
28,17067	15990
28,18133	16021
28,19200	16050
28,20267	16087
28,21333	16137
28,22400	16205
28,23467	16284
28,24533	16379
28,25600	16496
28,26667	16625
28,27733	16763
28,28800	16901
28,29867	17041
28,30933	17144
28,32000	17227
28,33067	17284
28,34133	17296
28,35200	17280
28,36267	17231
28,37333	17160
28,38400	17074
28,39467	16968
28,40533	16866
28,41600	16772
28,42667	16682
28,43733	16606
28,44800	16535
28,45867	16475
28,46933	16414
28,48000	16354
28,49067	16310
28,50133	16264
28,51200	16219
28,52267	16196
28,53333	16181
28,54400	16177
28,55467	16196
28,56533	16241
28,57600	16289
28,58667	16354
28,59733	16427
28,60800	16496
28,61867	16556
28,62933	16618
28,64000	16658
28,65067	16694
28,66133	16701
28,67200	16702
28,68267	16701
28,69333	16697
28,70400	16690
28,71467	16680
28,72533	16680
28,73600	16674
28,74667	16672
28,75733	16677
28,76800	16669
28,77867	16644
28,78933	16611
28,80000	16561
28,81067	16496
28,82133	16407
28,83200	16311
28,84267	16208
28,85333	16099
28,86400	15995
28,87467	15904
28,88533	15817
28,89600	15748
28,90667	15693
28,91733	15649
28,92800	15622
28,93867	15598
28,94933	15570
28,96000	15552
28,97067	15535
28,98133	15503
28,99200	15468
29,00267	15421
29,01333	15371
29,02400	15315
29,03467	15248
29,04533	15176
29,05600	15104
29,06667	15019
29,07733	14927
29,08800	14853
29,09867	14783
29,10933	14700
29,12000	14629
29,13067	14567
29,14133	14520
29,15200	14470
29,16267	14420
29,17333	14380
29,18400	14351
29,19467	14328
29,20533	14309
29,21600	14293
29,22667	14286
29,23733	14284
29,24800	14283
29,25867	14297
29,26933	14316
29,28000	14332
29,29067	14353
29,30133	14379
29,31200	14413
29,32267	14461
29,33333	14513
29,34400	14580
29,35467	14650
29,36533	14742
29,37600	14843
29,38667	14974
29,39733	15114
29,40800	15267
29,41867	15444
29,42933	15625
29,44000	15798
29,45067	15962
29,46133	16104
29,47200	16233
29,48267	16324
29,49333	16390
29,50400	16421
29,51467	16430
29,52533	16411
29,53600	16391
29,54667	16352
29,55733	16341
29,56800	16327
29,57867	16325
29,58933	16347
29,60000	16375
29,61067	16402
29,62133	16436
29,63200	16449
29,64267	16431
29,65333	16388
29,66400	16298
29,67467	16197
29,68533	16048
29,69600	15885
29,70667	15710
29,71733	15530
29,72800	15343
29,73867	15188
29,74933	15046
29,76000	14934
29,77067	14846
29,78133	14770
29,79200	14726
29,80267	14714
29,81333	14723
29,82400	14768
29,83467	14835
29,84533	14913
29,85600	15003
29,86667	15105
29,87733	15223
29,88800	15329
29,89867	15429
29,90933	15523
29,92000	15601
29,93067	15662
29,94133	15699
29,95200	15714
29,96267	15696
29,97333	15664
29,98400	15601
29,99467	15527
30,00533	15444
30,01600	15361
30,02667	15270
30,03733	15170
30,04800	15076
30,05867	14983
30,06933	14895
30,08000	14811
30,09067	14740
30,10133	14671
30,11200	14619
30,12267	14573
30,13333	14527
30,14400	14492
30,15467	14457
30,16533	14426
30,17600	14400
30,18667	14371
30,19733	14344
30,20800	14329
30,21867	14313
30,22933	14294
30,24000	14282
30,25067	14260
30,26133	14247
30,27200	14240
30,28267	14225
30,29333	14215
30,30400	14218
30,31467	14219
30,32533	14221
30,33600	14215
30,34667	14210
30,35733	14216
30,36800	14217
30,37867	14207
30,38933	14201
30,40000	14202
30,41067	14195
30,42133	14187
30,43200	14177
30,44267	14163
30,45333	14163
30,46400	14157
30,47467	14154
30,48533	14154
30,49600	14167
30,50667	14178
30,51733	14195
30,52800	14222
30,53867	14250
30,54933	14287
30,56000	14326
30,57067	14375
30,58133	14421
30,59200	14473
30,60267	14538
30,61333	14597
30,62400	14651
30,63467	14720
30,64533	14784
30,65600	14835
30,66667	14885
30,67733	14933
30,68800	14971
30,69867	14985
30,70933	14990
30,72000	14987
30,73067	14968
30,74133	14935
30,75200	14892
30,76267	14835
30,77333	14781
30,78400	14725
30,79467	14669
30,80533	14620
30,81600	14567
30,82667	14508
30,83733	14473
30,84800	14441
30,85867	14408
30,86933	14388
30,88000	14362
30,89067	14357
30,90133	14356
30,91200	14352
30,92267	14339
30,93333	14330
30,94400	14334
30,95467	14336
30,96533	14341
30,97600	14348
30,98667	14355
30,99733	14352
31,00800	14353
31,01867	14338
31,02933	14331
31,04000	14313
31,05067	14297
31,06133	14284
31,07200	14261
31,08267	14248
31,09333	14246
31,10400	14247
31,11467	14263
31,12533	14273
31,13600	14296
31,14667	14331
31,15733	14357
31,16800	14387
31,17867	14434
31,18933	14454
31,20000	14474
31,21067	14471
31,22133	14477
31,23200	14463
31,24267	14444
31,25333	14420
31,26400	14385
31,27467	14350
31,28533	14303
31,29600	14262
31,30667	14232
31,31733	14197
31,32800	14172
31,33867	14146
31,34933	14127
31,36000	14112
31,37067	14102
31,38133	14080
31,39200	14074
31,40267	14077
31,41333	14069
31,42400	14060
31,43467	14059
31,44533	14058
31,45600	14060
31,46667	14058
31,47733	14047
31,48800	14049
31,49867	14041
31,50933	14037
31,52000	14039
31,53067	14047
31,54133	14038
31,55200	14037
31,56267	14037
31,57333	14041
31,58400	14039
31,59467	14035
31,60533	14033
31,61600	14022
31,62667	14010
31,63733	14004
31,64800	13990
31,65867	13988
31,66933	13980
31,68000	13964
31,69067	13956
31,70133	13963
31,71200	13966
31,72267	13960
31,73333	13954
31,74400	13949
31,75467	13947
31,76533	13940
31,77600	13944
31,78667	13938
31,79733	13931
31,80800	13926
31,81867	13924
31,82933	13913
31,84000	13907
31,85067	13908
31,86133	13903
31,87200	13910
31,88267	13909
31,89333	13918
31,90400	13920
31,91467	13918
31,92533	13934
31,93600	13934
31,94667	13927
31,95733	13925
31,96800	13928
31,97867	13927
31,98933	13918
32,00000	13918
32,01067	13916
32,02133	13912
32,03200	13908
32,04267	13899
32,05333	13889
32,06400	13879
32,07467	13889
32,08533	13884
32,09600	13885
32,10667	13885
32,11733	13890
32,12800	13892
32,13867	13892
32,14933	13889
32,16000	13886
32,17067	13895
32,18133	13898
32,19200	13910
32,20267	13915
32,21333	13913
32,22400	13914
32,23467	13917
32,24533	13930
32,25600	13931
32,26667	13933
32,27733	13934
32,28800	13943
32,29867	13960
32,30933	13976
32,32000	13985
32,33067	14007
32,34133	14017
32,35200	14021
32,36267	14032
32,37333	14046
32,38400	14054
32,39467	14074
32,40533	14093
32,41600	14109
32,42667	14118
32,43733	14129
32,44800	14142
32,45867	14149
32,46933	14166
32,48000	14176
32,49067	14190
32,50133	14202
32,51200	14216
32,52267	14230
32,53333	14240
32,54400	14254
32,55467	14276
32,56533	14304
32,57600	14326
32,58667	14351
32,59733	14379
32,60800	14407
32,61867	14438
32,62933	14471
32,64000	14497
32,65067	14521
32,66133	14564
32,67200	14585
32,68267	14621
32,69333	14660
32,70400	14695
32,71467	14736
32,72533	14774
32,73600	14820
32,74667	14856
32,75733	14906
32,76800	14961
32,77867	15017
32,78933	15075
32,80000	15146
32,81067	15215
32,82133	15280
32,83200	15358
32,84267	15447
32,85333	15535
32,86400	15637
32,87467	15748
32,88533	15858
32,89600	15972
32,90667	16090
32,91733	16212
32,92800	16322
32,93867	16448
32,94933	16573
32,96000	16689
32,97067	16813
32,98133	16919
32,99200	17039
33,00267	17148
33,01333	17251
33,02400	17360
33,03467	17471
33,04533	17574
33,05600	17682
33,06667	17792
33,07733	17910
33,08800	18026
33,09867	18151
33,10933	18276
33,12000	18418
33,13067	18557
33,14133	18695
33,15200	18837
33,16267	18982
33,17333	19120
33,18400	19248
33,19467	19370
33,20533	19480
33,21600	19583
33,22667	19683
33,23733	19784
33,24800	19884
33,25867	19987
33,26933	20078
33,28000	20173
33,29067	20272
33,30133	20367
33,31200	20463
33,32267	20560
33,33333	20667
33,34400	20775
33,35467	20903
33,36533	21025
33,37600	21153
33,38667	21303
33,39733	21447
33,40800	21586
33,41867	21711
33,42933	21852
33,44000	21997
33,45067	22139
33,46133	22278
33,47200	22414
33,48267	22562
33,49333	22684
33,50400	22809
33,51467	22939
33,52533	23065
33,53600	23193
33,54667	23313
33,55733	23427
33,56800	23552
33,57867	23668
33,58933	23787
33,60000	23906
33,61067	24053
33,62133	24183
33,63200	24298
33,64267	24414
33,65333	24508
33,66400	24591
33,67467	24663
33,68533	24723
33,69600	24784
33,70667	24852
33,71733	24918
33,72800	24995
33,73867	25074
33,74933	25181
33,76000	25317
33,77067	25468
33,78133	25658
33,79200	25887
33,80267	26136
33,81333	26356
33,82400	26502
33,83467	26571
33,84533	26589
33,85600	26584
33,86667	26604
33,87733	26701
33,88800	26894
33,89867	27173
33,90933	27487
33,92000	27810
33,93067	28099
33,94133	28361
33,95200	28581
33,96267	28749
33,97333	28848
33,98400	28862
33,99467	28788
34,00533	28665
34,01600	28528
34,02667	28430
34,03733	28375
34,04800	28366
34,05867	28406
34,06933	28473
34,08000	28533
34,09067	28562
34,10133	28555
34,11200	28544
34,12267	28541
34,13333	28574
34,14400	28615
34,15467	28677
34,16533	28760
34,17600	28857
34,18667	28979
34,19733	29127
34,20800	29292
34,21867	29447
34,22933	29591
34,24000	29735
34,25067	29879
34,26133	30040
34,27200	30178
34,28267	30306
34,29333	30402
34,30400	30458
34,31467	30518
34,32533	30603
34,33600	30740
34,34667	30948
34,35733	31227
34,36800	31532
34,37867	31820
34,38933	32065
34,40000	32244
34,41067	32374
34,42133	32505
34,43200	32668
34,44267	32905
34,45333	33248
34,46400	33721
34,47467	34313
34,48533	34952
34,49600	35477
34,50667	35712
34,51733	35591
34,52800	35151
34,53867	34535
34,54933	33893
34,56000	33352
34,57067	32955
34,58133	32738
34,59200	32623
34,60267	32577
34,61333	32578
34,62400	32608
34,63467	32650
34,64533	32682
34,65600	32706
34,66667	32711
34,67733	32704
34,68800	32694
34,69867	32691
34,70933	32713
34,72000	32771
34,73067	32874
34,74133	33014
34,75200	33192
34,76267	33429
34,77333	33717
34,78400	34019
34,79467	34283
34,80533	34444
34,81600	34501
34,82667	34464
34,83733	34416
34,84800	34404
34,85867	34417
34,86933	34447
34,88000	34466
34,89067	34483
34,90133	34507
34,91200	34538
34,92267	34566
34,93333	34608
34,94400	34645
34,95467	34730
34,96533	34913
34,97600	35446
34,98667	37052
34,99733	41105
35,00800	49306
35,01867	62816
35,02933	81979
35,04000	105316
35,05067	128462
35,06133	144120
35,07200	146773
35,08267	136952
35,09333	120405
35,10400	103139
35,11467	88569
35,12533	77433
35,13600	69403
35,14667	63777
35,15733	59961
35,16800	57454
35,17867	55751
35,18933	54385
35,20000	53093
35,21067	51791
35,22133	50608
35,23200	49556
35,24267	48694
35,25333	47986
35,26400	47393
35,27467	46884
35,28533	46422
35,29600	46031
35,30667	45675
35,31733	45367
35,32800	45094
35,33867	44873
35,34933	44723
35,36000	44587
35,37067	44330
35,38133	43878
35,39200	43333
35,40267	42876
35,41333	42641
35,42400	42750
35,43467	43503
35,44533	45176
35,45600	47679
35,46667	50335
35,47733	52171
35,48800	52693
35,49867	52129
35,50933	50955
35,52000	49498
35,53067	47944
35,54133	46545
35,55200	45653
35,56267	45562
35,57333	46155
35,58400	46908
35,59467	47207
35,60533	46798
35,61600	45897
35,62667	44894
35,63733	44012
35,64800	43312
35,65867	42770
35,66933	42342
35,68000	42026
35,69067	41802
35,70133	41657
35,71200	41551
35,72267	41491
35,73333	41472
35,74400	41480
35,75467	41497
35,76533	41547
35,77600	41643
35,78667	41836
35,79733	42194
35,80800	42700
35,81867	43312
35,82933	43869
35,84000	44211
35,85067	44288
35,86133	44193
35,87200	44026
35,88267	43836
35,89333	43583
35,90400	43238
35,91467	42840
35,92533	42449
35,93600	42136
35,94667	41871
35,95733	41667
35,96800	41533
35,97867	41452
35,98933	41455
36,00000	41519
36,01067	41616
36,02133	41726
36,03200	41803
36,04267	41804
36,05333	41728
36,06400	41623
36,07467	41533
36,08533	41472
36,09600	41448
36,10667	41462
36,11733	41516
36,12800	41599
36,13867	41696
36,14933	41815
36,16000	41975
36,17067	42163
36,18133	42342
36,19200	42514
36,20267	42654
36,21333	42792
36,22400	42932
36,23467	43047
36,24533	43113
36,25600	43103
36,26667	43033
36,27733	42963
36,28800	42985
36,29867	43212
36,30933	43619
36,32000	44056
36,33067	44317
36,34133	44295
36,35200	44017
36,36267	43623
36,37333	43251
36,38400	42942
36,39467	42716
36,40533	42534
36,41600	42382
36,42667	42245
36,43733	42139
36,44800	42063
36,45867	42020
36,46933	42000
36,48000	41992
36,49067	41987
36,50133	42001
36,51200	42028
36,52267	42026
36,53333	42046
36,54400	42059
36,55467	42061
36,56533	42065
36,57600	42070
36,58667	42072
36,59733	42075
36,60800	42081
36,61867	42081
36,62933	42091
36,64000	42116
36,65067	42146
36,66133	42185
36,67200	42236
36,68267	42297
36,69333	42350
36,70400	42395
36,71467	42428
36,72533	42459
36,73600	42499
36,74667	42559
36,75733	42629
36,76800	42715
36,77867	42779
36,78933	42785
36,80000	42734
36,81067	42643
36,82133	42528
36,83200	42426
36,84267	42344
36,85333	42281
36,86400	42242
36,87467	42233
36,88533	42233
36,89600	42228
36,90667	42221
36,91733	42211
36,92800	42211
36,93867	42207
36,94933	42209
36,96000	42226
36,97067	42272
36,98133	42379
36,99200	42531
37,00267	42752
37,01333	43004
37,02400	43257
37,03467	43453
37,04533	43550
37,05600	43514
37,06667	43374
37,07733	43151
37,08800	42915
37,09867	42699
37,10933	42517
37,12000	42384
37,13067	42290
37,14133	42233
37,15200	42210
37,16267	42214
37,17333	42235
37,18400	42296
37,19467	42379
37,20533	42493
37,21600	42587
37,22667	42644
37,23733	42653
37,24800	42614
37,25867	42544
37,26933	42454
37,28000	42378
37,29067	42309
37,30133	42252
37,31200	42218
37,32267	42189
37,33333	42173
37,34400	42169
37,35467	42159
37,36533	42150
37,37600	42149
37,38667	42158
37,39733	42151
37,40800	42155
37,41867	42154
37,42933	42162
37,44000	42173
37,45067	42178
37,46133	42190
37,47200	42198
37,48267	42202
37,49333	42210
37,50400	42217
37,51467	42228
37,52533	42233
37,53600	42244
37,54667	42251
37,55733	42248
37,56800	42242
37,57867	42232
37,58933	42237
37,60000	42237
37,61067	42239
37,62133	42246
37,63200	42260
37,64267	42285
37,65333	42310
37,66400	42342
37,67467	42374
37,68533	42395
37,69600	42423
37,70667	42447
37,71733	42462
37,72800	42478
37,73867	42483
37,74933	42484
37,76000	42481
37,77067	42496
37,78133	42504
37,79200	42505
37,80267	42498
37,81333	42488
37,82400	42486
37,83467	42497
37,84533	42513
37,85600	42548
37,86667	42603
37,87733	42666
37,88800	42746
37,89867	42825
37,90933	42879
37,92000	42914
37,93067	42924
37,94133	42908
37,95200	42863
37,96267	42790
37,97333	42723
37,98400	42644
37,99467	42567
38,00533	42499
38,01600	42449
38,02667	42411
38,03733	42379
38,04800	42366
38,05867	42362
38,06933	42352
38,08000	42351
38,09067	42350
38,10133	42351
38,11200	42346
38,12267	42353
38,13333	42355
38,14400	42357
38,15467	42349
38,16533	42356
38,17600	42353
38,18667	42357
38,19733	42361
38,20800	42381
38,21867	42381
38,22933	42388
38,24000	42406
38,25067	42412
38,26133	42422
38,27200	42426
38,28267	42430
38,29333	42423
38,30400	42433
38,31467	42422
38,32533	42415
38,33600	42416
38,34667	42409
38,35733	42409
38,36800	42410
38,37867	42414
38,38933	42406
38,40000	42396
38,41067	42405
38,42133	42401
38,43200	42419
38,44267	42428
38,45333	42420
38,46400	42426
38,47467	42434
38,48533	42449
38,49600	42446
38,50667	42453
38,51733	42464
38,52800	42476
38,53867	42484
38,54933	42483
38,56000	42490
38,57067	42494
38,58133	42493
38,59200	42498
38,60267	42505
38,61333	42505
38,62400	42503
38,63467	42516
38,64533	42516
38,65600	42525
38,66667	42540
38,67733	42556
38,68800	42568
38,69867	42585
38,70933	42609
38,72000	42631
38,73067	42655
38,74133	42695
38,75200	42753
38,76267	42833
38,77333	42996
38,78400	43265
38,79467	43693
38,80533	44358
38,81600	45361
38,82667	46812
38,83733	48827
38,84800	51468
38,85867	54717
38,86933	58476
38,88000	62448
38,89067	66280
38,90133	69486
38,91200	71650
38,92267	72448
38,93333	71775
38,94400	69749
38,95467	66683
38,96533	63018
38,97600	59190
38,98667	55590
38,99733	52459
39,00800	49932
39,01867	47984
39,02933	46549
39,04000	45531
39,05067	44836
39,06133	44353
39,07200	44011
39,08267	43765
39,09333	43575
39,10400	43414
39,11467	43270
39,12533	43148
39,13600	43023
39,14667	42897
39,15733	42771
39,16800	42648
39,17867	42521
39,18933	42394
39,20000	42252
39,21067	42111
39,22133	41954
39,23200	41811
39,24267	41639
39,25333	41464
39,26400	41278
39,27467	41095
39,28533	40901
39,29600	40694
39,30667	40479
39,31733	40263
39,32800	40046
39,33867	39830
39,34933	39587
39,36000	39355
39,37067	39128
39,38133	38903
39,39200	38656
39,40267	38422
39,41333	38211
39,42400	37999
39,43467	37775
39,44533	37572
39,45600	37381
39,46667	37187
39,47733	36983
39,48800	36765
39,49867	36547
39,50933	36312
39,52000	36050
39,53067	35752
39,54133	35434
39,55200	35085
39,56267	34739
39,57333	34393
39,58400	34048
39,59467	33708
39,60533	33333
39,61600	32892
39,62667	32353
39,63733	31710
39,64800	30947
39,65867	30073
39,66933	29106
39,68000	28044
39,69067	26906
39,70133	25756
39,71200	24597
39,72267	23412
39,73333	22184
39,74400	20956
39,75467	19723
39,76533	18533
39,77600	17361
39,78667	16242
39,79733	15178
39,80800	14189
39,81867	13255
39,82933	12371
39,84000	11548
39,85067	10792
39,86133	10098
39,87200	9459
39,88267	8861
39,89333	8315
39,90400	7811
39,91467	7354
39,92533	6921
39,93600	6521
39,94667	6172
39,95733	5850
39,96800	5546
39,97867	5267
39,98933	5004
40,00000	4760
40,01067	4543
40,02133	4332
40,03200	4129
40,04267	3953
40,05333	3788
40,06400	3630
40,07467	3482
40,08533	3350
40,09600	3221
40,10667	3092
40,11733	2977
40,12800	2865
40,13867	2761
40,14933	2664
40,16000	2564
40,17067	2470
40,18133	2380
40,19200	2286
40,20267	2213
40,21333	2141
40,22400	2055
40,23467	1994
40,24533	1922
40,25600	1851
40,26667	1776
40,27733	1715
40,28800	1657
40,29867	1604
40,30933	1554
40,32000	1492
40,33067	1430
40,34133	1381
40,35200	1344
40,36267	1290
40,37333	1244
40,38400	1198
40,39467	1154
40,40533	1121
40,41600	1081
40,42667	1046
40,43733	1010
40,44800	960
40,45867	933
40,46933	902
40,48000	868
40,49067	831
40,50133	808
40,51200	779
40,52267	746
40,53333	713
40,54400	681
40,55467	658
40,56533	624
40,57600	600
40,58667	578
40,59733	557
40,60800	536
40,61867	512
40,62933	487
40,64000	460
40,65067	435
40,66133	416
40,67200	388
40,68267	371
40,69333	345
40,70400	324
40,71467	300
40,72533	276
40,73600	247
40,74667	229
40,75733	221
40,76800	194
40,77867	163
40,78933	145
40,80000	126
40,81067	112
40,82133	97
40,83200	75
40,84267	52
40,85333	39
40,86400	24
40,87467	9
40,88533	-8
40,89600	-27
40,90667	-38
40,91733	-46
40,92800	-65
40,93867	-74
40,94933	-86
40,96000	-112
40,97067	-125
40,98133	-125
40,99200	-135
41,00267	-140
41,01333	-152
41,02400	-162
41,03467	-166
41,04533	-181
41,05600	-188
41,06667	-192
41,07733	-196
41,08800	-207
41,09867	-221
41,10933	-226
41,12000	-233
41,13067	-235
41,14133	-235
41,15200	-242
41,16267	-250
41,17333	-252
41,18400	-261
41,19467	-264
41,20533	-277
41,21600	-288
41,22667	-291
41,23733	-288
41,24800	-288
41,25867	-297
41,26933	-300
41,28000	-302
41,29067	-304
41,30133	-309
41,31200	-315
41,32267	-322
41,33333	-326
41,34400	-324
41,35467	-328
41,36533	-323
41,37600	-325
41,38667	-322
41,39733	-323
41,40800	-314
41,41867	-322
41,42933	-322
41,44000	-324
41,45067	-320
41,46133	-318
41,47200	-316
41,48267	-309
41,49333	-305
41,50400	-296
41,51467	-290
41,52533	-284
41,53600	-281
41,54667	-273
41,55733	-269
41,56800	-259
41,57867	-248
41,58933	-254
41,60000	-246
41,61067	-233
41,62133	-226
41,63200	-213
41,64267	-218
41,65333	-214
41,66400	-206
41,67467	-197
41,68533	-185
41,69600	-180
41,70667	-167
41,71733	-155
41,72800	-147
41,73867	-138
41,74933	-137
41,76000	-129
41,77067	-125
41,78133	-117
41,79200	-110
41,80267	-103
41,81333	-95
41,82400	-87
41,83467	-82
41,84533	-74
41,85600	-72
41,86667	-62
41,87733	-55
41,88800	-49
41,89867	-49
41,90933	-40
41,92000	-29
41,93067	-14
41,94133	-9
41,95200	-5
41,96267	1
41,97333	3
41,98400	14
41,99467	21
42,00533	21
42,01600	24
42,02667	37
42,03733	37
42,04800	49
42,05867	53
42,06933	55
42,08000	61
42,09067	62
42,10133	65
42,11200	65
42,12267	70
42,13333	73
42,14400	77
42,15467	86
42,16533	90
42,17600	90
42,18667	92
42,19733	99
42,20800	94
42,21867	95
42,22933	98
42,24000	102
42,25067	99
42,26133	104
42,27200	108
42,28267	109
42,29333	116
42,30400	110
42,31467	111
42,32533	112
42,33600	113
42,34667	119
42,35733	127
42,36800	121
42,37867	121
42,38933	122
42,40000	125
42,41067	126
42,42133	130
42,43200	131
42,44267	129
42,45333	132
42,46400	132
42,47467	132
42,48533	130
42,49600	126
42,50667	127
42,51733	138
42,52800	128
42,53867	133
42,54933	129
42,56000	121
42,57067	124
42,58133	130
42,59200	128
42,60267	134
42,61333	132
42,62400	135
42,63467	134
42,64533	137
42,65600	137
42,66667	137
42,67733	134
42,68800	136
42,69867	139
42,70933	130
42,72000	129
42,73067	132
42,74133	139
42,75200	133
42,76267	139
42,77333	137
42,78400	140
42,79467	134
42,80533	144
42,81600	138
42,82667	135
42,83733	139
42,84800	134
42,85867	137
42,86933	132
42,88000	136
42,89067	134
42,90133	134
42,91200	129
42,92267	129
42,93333	137
42,94400	142
42,95467	130
42,96533	133
42,97600	135
42,98667	132
42,99733	130
43,00800	124
43,01867	133
43,02933	128
43,04000	126
43,05067	135
43,06133	134
43,07200	137
43,08267	129
43,09333	132
43,10400	134
43,11467	133
43,12533	132
43,13600	129
43,14667	128
43,15733	127
43,16800	129
43,17867	130
43,18933	134
43,20000	132
43,21067	132
43,22133	132
43,23200	138
43,24267	133
43,25333	135
43,26400	131
43,27467	134
43,28533	136
43,29600	128
43,30667	133
43,31733	136
43,32800	141
43,33867	131
43,34933	129
43,36000	133
43,37067	135
43,38133	134
43,39200	132
43,40267	138
43,41333	127
43,42400	126
43,43467	136
43,44533	134
43,45600	129
43,46667	116
43,47733	124
43,48800	128
43,49867	130
43,50933	123
43,52000	128
43,53067	120
43,54133	129
43,55200	134
43,56267	131
43,57333	128
43,58400	132
43,59467	138
43,60533	123
43,61600	129
43,62667	122
43,63733	133
43,64800	130
43,65867	128
43,66933	122
43,68000	126
43,69067	123
43,70133	115
43,71200	121
43,72267	122
43,73333	121
43,74400	126
43,75467	121
43,76533	127
43,77600	121
43,78667	121
43,79733	119
43,80800	127
43,81867	124
43,82933	129
43,84000	126
43,85067	119
43,86133	116
43,87200	117
43,88267	115
43,89333	116
43,90400	117
43,91467	114
43,92533	112
43,93600	114
43,94667	120
43,95733	118
43,96800	114
43,97867	112
43,98933	112
44,00000	110
44,01067	109
44,02133	101
44,03200	110
44,04267	111
44,05333	108
44,06400	108
44,07467	107
44,08533	105
44,09600	103
44,10667	102
44,11733	100
44,12800	105
44,13867	106
44,14933	108
44,16000	107
44,17067	106
44,18133	109
44,19200	110
44,20267	110
44,21333	105
44,22400	105
44,23467	111
44,24533	104
44,25600	109
44,26667	104
44,27733	99
44,28800	100
44,29867	104
44,30933	109
44,32000	107
44,33067	105
44,34133	104
44,35200	103
44,36267	98
44,37333	100
44,38400	109
44,39467	106
44,40533	105
44,41600	109
44,42667	102
44,43733	103
44,44800	96
44,45867	110
44,46933	105
44,48000	102
44,49067	104
44,50133	104
44,51200	111
44,52267	107
44,53333	101
44,54400	102
44,55467	103
44,56533	99
44,57600	100
44,58667	98
44,59733	96
44,60800	98
44,61867	100
44,62933	99
44,64000	100
44,65067	95
44,66133	97
44,67200	100
44,68267	99
44,69333	103
44,70400	104
44,71467	98
44,72533	100
44,73600	105
44,74667	102
44,75733	103
44,76800	97
44,77867	101
44,78933	100
44,80000	103
44,81067	95
44,82133	100
44,83200	98
44,84267	96
44,85333	106
44,86400	107
44,87467	102
44,88533	101
44,89600	95
44,90667	100
44,91733	102
44,92800	98
44,93867	96
44,94933	100
44,96000	93
44,97067	100
44,98133	96
44,99200	96
45,00267	93
45,01333	98
45,02400	90
45,03467	88
45,04533	87
45,05600	88
45,06667	95
45,07733	100
45,08800	105
45,09867	100
45,10933	92
45,12000	94
45,13067	99
45,14133	99
45,15200	99
45,16267	96
45,17333	93
45,18400	98
45,19467	101
45,20533	106
45,21600	107
45,22667	106
45,23733	103
45,24800	102
45,25867	97
45,26933	94
45,28000	95
45,29067	100
45,30133	99
45,31200	101
45,32267	96
45,33333	103
45,34400	99
45,35467	98
45,36533	98
45,37600	103
45,38667	99
45,39733	99
45,40800	97
45,41867	100
45,42933	98
45,44000	95
45,45067	91
45,46133	92
45,47200	104
45,48267	103
45,49333	99
45,50400	96
45,51467	96
45,52533	97
45,53600	97
45,54667	101
45,55733	104
45,56800	99
45,57867	101
45,58933	110
45,60000	110
45,61067	110
45,62133	100
45,63200	100
45,64267	101
45,65333	101
45,66400	103
45,67467	100
45,68533	95
45,69600	101
45,70667	105
45,71733	106
45,72800	101
45,73867	95
45,74933	96
45,76000	105
45,77067	108
45,78133	108
45,79200	100
45,80267	98
45,81333	101
45,82400	94
45,83467	95
45,84533	101
45,85600	100
45,86667	96
45,87733	99
45,88800	102
45,89867	102
45,90933	98
45,92000	101
45,93067	100
45,94133	101
45,95200	102
45,96267	106
45,97333	106
45,98400	104
45,99467	101
46,00533	101
46,01600	98
46,02667	101
46,03733	105
46,04800	96
46,05867	98
46,06933	99
46,08000	100
46,09067	95
46,10133	98
46,11200	108
46,12267	92
46,13333	99
46,14400	96
46,15467	101
46,16533	106
46,17600	103
46,18667	97
46,19733	103
46,20800	93
46,21867	96
46,22933	90
46,24000	104
46,25067	105
46,26133	104
46,27200	97
46,28267	99
46,29333	105
46,30400	98
46,31467	109
46,32533	101
46,33600	89
46,34667	95
46,35733	94
46,36800	98
46,37867	110
46,38933	112
46,40000	106
46,41067	99
46,42133	103
46,43200	98
46,44267	102
46,45333	101
46,46400	96
46,47467	101
46,48533	94
46,49600	94
46,50667	96
46,51733	92
46,52800	96
46,53867	96
46,54933	93
46,56000	97
46,57067	99
46,58133	98
46,59200	95
46,60267	95
46,61333	99
46,62400	106
46,63467	100
46,64533	101
46,65600	106
46,66667	103
46,67733	96
46,68800	92
46,69867	99
46,70933	103
46,72000	94
46,73067	94
46,74133	96
46,75200	93
46,76267	97
46,77333	97
46,78400	93
46,79467	97
46,80533	96
46,81600	98
46,82667	104
46,83733	99
46,84800	93
46,85867	97
46,86933	98
46,88000	96
46,89067	102
46,90133	98
46,91200	98
46,92267	94
46,93333	101
46,94400	100
46,95467	95
46,96533	97
46,97600	103
46,98667	104
46,99733	106
47,00800	97
47,01867	101
47,02933	98
47,04000	103
47,05067	103
47,06133	105
47,07200	111
47,08267	100
47,09333	104
47,10400	100
47,11467	105
47,12533	104
47,13600	102
47,14667	103
47,15733	98
47,16800	95
47,17867	96
47,18933	103
47,20000	102
47,21067	100
47,22133	96
47,23200	93
47,24267	103
47,25333	105
47,26400	95
47,27467	104
47,28533	106
47,29600	102
47,30667	95
47,31733	92
47,32800	97
47,33867	101
47,34933	105
47,36000	94
47,37067	92
47,38133	99
47,39200	97
47,40267	97
47,41333	95
47,42400	88
47,43467	88
47,44533	92
47,45600	91
47,46667	97
47,47733	96
47,48800	99
47,49867	94
47,50933	88
47,52000	95
47,53067	97
47,54133	89
47,55200	87
47,56267	85
47,57333	88
47,58400	90
47,59467	85
47,60533	95
47,61600	94
47,62667	93
47,63733	87
47,64800	87
47,65867	85
47,66933	92
47,68000	89
47,69067	87
47,70133	85
47,71200	87
47,72267	88
47,73333	87
47,74400	89
47,75467	90
47,76533	91
47,77600	91
47,78667	83
47,79733	89
47,80800	90
47,81867	90
47,82933	91
47,84000	91
47,85067	96
47,86133	91
47,87200	84
47,88267	86
47,89333	88
47,90400	83
47,91467	86
47,92533	82
47,93600	83
47,94667	86
47,95733	79
47,96800	80
47,97867	78
47,98933	78
48,00000	80
48,01067	88
48,02133	87
48,03200	87
48,04267	96
48,05333	85
48,06400	76
48,07467	88
48,08533	84
48,09600	86
48,10667	83
48,11733	87
48,12800	76
48,13867	81
48,14933	78
48,16000	82
48,17067	75
48,18133	73
48,19200	79
48,20267	77
48,21333	84
48,22400	75
48,23467	76
48,24533	85
48,25600	89
48,26667	77
48,27733	80
48,28800	74
48,29867	84
48,30933	76
48,32000	78
48,33067	77
48,34133	81
48,35200	81
48,36267	75
48,37333	71
48,38400	77
48,39467	70
48,40533	79
48,41600	79
48,42667	78
48,43733	72
48,44800	69
48,45867	69
48,46933	83
48,48000	74
48,49067	72
48,50133	79
48,51200	79
48,52267	74
48,53333	74
48,54400	77
48,55467	74
48,56533	69
48,57600	71
48,58667	62
48,59733	57
48,60800	62
48,61867	62
48,62933	51
48,64000	52
48,65067	59
48,66133	52
48,67200	59
48,68267	62
48,69333	62
48,70400	62
48,71467	68
48,72533	58
48,73600	64
48,74667	67
48,75733	64
48,76800	62
48,77867	54
48,78933	52
48,80000	50
48,81067	52
48,82133	56
48,83200	56
48,84267	66
48,85333	55
48,86400	54
48,87467	54
48,88533	48
48,89600	53
48,90667	56
48,91733	51
48,92800	50
48,93867	55
48,94933	49
48,96000	56
48,97067	56
48,98133	56
48,99200	49
49,00267	48
49,01333	49
49,02400	57
49,03467	55
49,04533	58
49,05600	54
49,06667	50
49,07733	51
49,08800	45
49,09867	53
49,10933	51
49,12000	48
49,13067	41
49,14133	50
49,15200	49
49,16267	52
49,17333	44
49,18400	45
49,19467	49
49,20533	54
49,21600	41
49,22667	44
49,23733	37
49,24800	41
49,25867	40
49,26933	38
49,28000	26
49,29067	29
49,30133	29
49,31200	26
49,32267	25
49,33333	31
49,34400	33
49,35467	35
49,36533	32
49,37600	39
49,38667	30
49,39733	34
49,40800	24
49,41867	27
49,42933	29
49,44000	30
49,45067	26
49,46133	22
49,47200	20
49,48267	26
49,49333	13
49,50400	26
49,51467	19
49,52533	19
49,53600	23
49,54667	23
49,55733	15
49,56800	15
49,57867	12
49,58933	22
49,60000	16
49,61067	16
49,62133	13
49,63200	13
49,64267	25
49,65333	26
49,66400	29
49,67467	29
49,68533	27
49,69600	23
49,70667	22
49,71733	21
49,72800	28
49,73867	18
49,74933	11
49,76000	15
49,77067	12
49,78133	17
49,79200	16
49,80267	17
49,81333	18
49,82400	17
49,83467	13
49,84533	11
49,85600	17
49,86667	15
49,87733	13
49,88800	17
49,89867	21
49,90933	18
49,92000	13
49,93067	15
49,94133	15
49,95200	11
49,96267	20
49,97333	19
49,98400	13
49,99467	20
50,00533	16


