[Header]
Application Name	LabSolutions
Version	5.73
Data File Name	C:\Users\Public\DADOS\Ricardo borges\RMBorges\26.02.25\CHIMARRAO 3.lcd
Output Date	26/02/2025
Output Time	22:01:04

[File Information]
Type	Data File
Generated	26/02/2025 21:10:36
Generated by	System Administrator
Modified	26/02/2025 22:01:03
Modified by	System Administrator

[Sample Information]
Operator Name	System Administrator
Acquired	26/02/2025 21:11:00
Sample Type	0:Unknown
Level	0
Sample Name	CHIMARAO 3
Sample ID	CHIMARAO 3
ISTD Amount1	1
ISTD Amount2	1
ISTD Amount3	1
ISTD Amount4	1
ISTD Amount5	1
ISTD Amount6	1
ISTD Amount7	1
ISTD Amount8	1
ISTD Amount9	1
ISTD Amount10	1
ISTD Amount11	1
ISTD Amount12	1
ISTD Amount13	1
ISTD Amount14	1
ISTD Amount15	1
ISTD Amount16	1
ISTD Amount17	1
ISTD Amount18	1
ISTD Amount19	1
ISTD Amount20	1
ISTD Amount21	1
ISTD Amount22	1
ISTD Amount23	1
ISTD Amount24	1
ISTD Amount25	1
ISTD Amount26	1
ISTD Amount27	1
ISTD Amount28	1
ISTD Amount29	1
ISTD Amount30	1
ISTD Amount31	1
ISTD Amount32	1
Sample Amount	1
Dilution Factor	1
Vial#	16
Injection Volume	10

[Original Files]
Data File	C:\Users\Public\DADOS\Ricardo borges\RMBorges\26.02.25\CHIMARRAO 3.lcd
Method File	C:\Users\Public\MÉTODOS\MÉTODOS HPLC AUTOMÁTICO\RICARDO BORGES\RMBorges\sciffee\experimental 1 - pool.lcm
Batch File	C:\Users\Public\DADOS\Ricardo borges\RMBorges\26.02.25\BATCH_RM_MIX POOL_26.02.2025.lcb
Report Format File	C:\LabSolutions\System\Default.lsr

[File Description]


[Configuration]
Instrument Name	HPLC analítico (automático)
Instrument #	1
Line #	1
# of Detectors	1
Detector ID	PDA
Detector Name	PDA
# of Channels	1

[Peak Table(PDA-Ch1)]
# of Peaks	89
Peak#	R.Time	I.Time	F.Time	Area	Height	A/H	Conc.	Mark	ID#	Name	k'	Plate #	Plate Ht.	Tailing	Resolution	Sep.Factor	Area Ratio	Height Ratio	Conc. %	Norm Conc.
1	1,565	1,259	1,707	223155	17834	12,513	0,000	   			0,000	303	494,752	0,000	0,000	0,000	0	0	0,000	0,000
2	1,771	1,707	1,995	251311	26025	9,656	0,000	 V 			0,132	1203	124,737	0,000	0,731	0,000	0	0	0,000	0,000
3	2,095	1,995	2,752	887668	93501	9,494	0,000	SV 			0,338	1614	92,945	0,000	1,566	2,569	0	0	0,000	0,000
4	2,496	2,421	2,571	8754	1539	5,688	0,000	T  			0,594	2861	52,437	0,000	2,028	1,757	0	0	0,000	0,000
5	2,643	2,571	2,741	14576	2803	5,201	0,000	TV 			0,689	4037	37,161	0,000	0,836	1,159	0	0	0,000	0,000
6	2,897	2,752	3,147	158738	13343	11,897	0,000	 V 			0,851	1776	84,474	0,000	1,153	1,236	0	0	0,000	0,000
7	3,384	3,147	3,627	109594	7588	14,443	0,000	 V 			1,162	1752	85,639	0,000	1,627	1,365	0	0	0,000	0,000
8	3,860	3,627	4,011	81345	6399	12,713	0,000	 V 			1,467	1818	82,497	0,000	1,389	1,262	0	0	0,000	0,000
9	4,138	4,011	4,608	111055	6864	16,180	0,000	 V 			1,644	2651	56,579	0,000	0,812	1,121	0	0	0,000	0,000
10	4,704	4,608	4,757	16940	2002	8,463	0,000	 V 			2,005	97	1545,083	0,000	0,507	1,220	0	0	0,000	0,000
11	4,853	4,757	4,917	19962	2148	9,293	0,000	 V 			2,101	46	3253,909	0,000	0,063	1,048	0	0	0,000	0,000
12	5,057	4,917	5,291	42422	2485	17,072	0,000	 V 			2,231	482	310,905	0,000	0,108	1,062	0	0	0,000	0,000
13	5,534	5,291	5,909	166429	12322	13,507	0,000	 V 			2,536	4388	34,181	0,000	0,759	1,136	0	0	0,000	0,000
14	6,091	5,909	6,144	24421	2507	9,740	0,000	 V 			2,891	827	181,343	0,000	0,943	1,140	0	0	0,000	0,000
15	6,425	6,144	6,720	11228123	1019421	11,014	0,000	 V 			3,105	7278	20,611	1,209	0,582	1,074	0	0	0,000	0,000
16	6,871	6,720	7,243	1204310	74751	16,111	0,000	 V 			3,390	4672	32,103	0,000	1,269	1,092	0	0	0,000	0,000
17	7,360	7,243	7,616	207755	15118	13,742	0,000	 V 			3,703	3647	41,124	0,000	1,100	1,092	0	0	0,000	0,000
18	7,692	7,616	7,755	27298	3327	8,206	0,000	 V 			3,915	54	2773,557	0,000	0,142	1,057	0	0	0,000	0,000
19	7,822	7,755	7,947	35850	3288	10,905	0,000	 V 			3,998	44	3426,230	0,000	0,029	1,021	0	0	0,000	0,000
20	8,056	7,947	8,128	33801	3350	10,091	0,000	 V 			4,147	1002	149,663	0,000	0,081	1,037	0	0	0,000	0,000
21	8,270	8,128	8,341	65710	6381	10,297	0,000	 V 			4,284	2016	74,395	0,000	0,244	1,033	0	0	0,000	0,000
22	8,451	8,341	8,565	88204	7638	11,549	0,000	 V 			4,399	2742	54,713	0,000	0,261	1,027	0	0	0,000	0,000
23	8,745	8,565	8,981	356662	29251	12,193	0,000	 V 			4,587	12078	12,420	0,000	0,611	1,043	0	0	0,000	0,000
24	9,013	8,981	9,248	56189	4928	11,402	0,000	 V 			4,759	42	3602,804	0,000	0,091	1,037	0	0	0,000	0,000
25	9,764	9,248	10,005	306489	16047	19,099	0,000	 V 			5,238	10135	14,800	0,000	0,251	1,101	0	0	0,000	0,000
26	10,218	10,005	10,389	404335	28352	14,261	0,000	 V 			5,529	8706	17,230	0,000	1,099	1,055	0	0	0,000	0,000
27	10,525	10,389	10,763	358237	29657	12,079	0,000	 V 			5,724	14041	10,683	0,000	0,773	1,035	0	0	0,000	0,000
28	11,178	10,763	11,659	10872061	915428	11,876	0,000	 V 			6,142	19422	7,723	1,166	1,933	1,073	0	0	0,000	0,000
29	11,869	11,659	12,075	122991	6354	19,355	0,000	 V 			6,584	5157	29,085	0,000	1,408	1,072	0	0	0,000	0,000
30	12,255	12,075	12,459	237006	19573	12,109	0,000	 V 			6,830	22862	6,561	0,000	0,782	1,037	0	0	0,000	0,000
31	12,629	12,459	12,683	59717	4747	12,580	0,000	 V 			7,069	92	1632,636	0,000	0,134	1,035	0	0	0,000	0,000
32	12,828	12,683	12,960	100560	7714	13,037	0,000	 V 			7,196	9967	15,050	0,000	0,069	1,018	0	0	0,000	0,000
33	13,243	12,960	19,467	9816229	408225	24,046	0,000	SV 			7,461	16211	9,253	2,886	0,893	1,037	0	0	0,000	0,000
34	14,292	14,112	14,496	92627	9359	9,897	0,000	T  			8,132	41677	3,599	1,078	3,015	1,090	0	0	0,000	0,000
35	14,751	14,496	14,912	48990	3219	15,220	0,000	T  			8,425	19564	7,667	0,000	1,307	1,036	0	0	0,000	0,000
36	15,079	14,912	15,275	86752	8388	10,343	0,000	TV 			8,634	46441	3,230	0,000	0,935	1,025	0	0	0,000	0,000
37	15,426	15,275	15,488	23033	2354	9,785	0,000	TV 			8,856	8638	17,366	0,000	0,736	1,026	0	0	0,000	0,000
38	15,696	15,488	15,883	108274	8088	13,387	0,000	TV 			9,029	28274	5,305	0,000	0,520	1,019	0	0	0,000	0,000
39	16,001	15,883	16,107	39510	4031	9,801	0,000	TV 			9,223	33927	4,421	0,000	0,846	1,022	0	0	0,000	0,000
40	16,279	16,107	16,459	75879	5318	14,267	0,000	TV 			9,401	23857	6,287	0,000	0,722	1,019	0	0	0,000	0,000
41	16,576	16,459	16,725	34990	2599	13,461	0,000	TV 			9,591	9139	16,413	0,000	0,533	1,020	0	0	0,000	0,000
42	16,883	16,725	16,971	40852	3439	11,880	0,000	TV 			9,787	12476	12,023	0,000	0,473	1,020	0	0	0,000	0,000
43	17,066	16,971	17,259	35450	3456	10,257	0,000	TV 			9,904	17447	8,597	0,000	0,327	1,012	0	0	0,000	0,000
44	17,732	17,269	18,091	215206	11284	19,073	0,000	T  			10,329	25903	5,791	0,000	1,392	1,043	0	0	0,000	0,000
45	18,165	18,091	18,315	14904	1494	9,974	0,000	TV 			10,606	3323	45,142	0,000	0,509	1,027	0	0	0,000	0,000
46	18,527	18,315	18,677	38155	3575	10,671	0,000	TV 			10,837	61862	2,425	0,000	0,464	1,022	0	0	0,000	0,000
47	18,783	18,677	18,869	3501	447	7,824	0,000	TV 			11,001	93718	1,601	0,000	0,942	1,015	0	0	0,000	0,000
48	19,136	18,891	19,179	27264	2660	10,249	0,000	T  			11,226	11206	13,385	0,000	0,730	1,021	0	0	0,000	0,000
49	19,323	19,179	19,467	47860	4584	10,441	0,000	TV 			11,346	55345	2,710	0,000	0,356	1,011	0	0	0,000	0,000
50	19,687	19,467	19,925	2150218	197952	10,862	0,000	 V 			11,578	75302	1,992	0,000	1,181	1,020	0	0	0,000	0,000
51	20,041	19,925	20,160	275388	24137	11,409	0,000	 V 			11,805	26334	5,696	0,000	0,908	1,020	0	0	0,000	0,000
52	20,394	20,160	21,280	10146948	924718	10,973	0,000	SV 			12,030	82588	1,816	1,143	0,908	1,019	0	0	0,000	0,000
53	20,779	20,736	20,896	3762	693	5,431	0,000	T  			12,276	294845	0,509	1,805	1,759	1,020	0	0	0,000	0,000
54	21,135	20,928	21,280	60153	6530	9,211	0,000	T  			12,504	105670	1,420	0,869	1,725	1,019	0	0	0,000	0,000
55	21,627	21,280	21,984	3970719	311358	12,753	0,000	 V 			12,818	72018	2,083	0,983	1,688	1,025	0	0	0,000	0,000
56	22,122	21,984	22,251	204844	13435	15,247	0,000	 V 			13,134	796	188,401	0,000	0,286	1,025	0	0	0,000	0,000
57	22,475	22,251	22,581	248038	13683	18,127	0,000	 V 			13,360	2573	58,306	0,000	0,144	1,017	0	0	0,000	0,000
58	22,799	22,581	23,147	4115549	364063	11,304	0,000	 V 			13,567	94603	1,586	1,254	0,313	1,015	0	0	0,000	0,000
59	23,271	23,147	23,488	235323	15129	15,554	0,000	 V 			13,869	20941	7,163	0,000	1,005	1,022	0	0	0,000	0,000
60	23,673	23,488	23,925	258758	14399	17,970	0,000	 V 			14,125	34527	4,344	0,000	0,697	1,018	0	0	0,000	0,000
61	24,198	23,925	24,533	1051914	74343	14,150	0,000	 V 			14,461	79857	1,878	0,000	1,232	1,024	0	0	0,000	0,000
62	24,699	24,533	24,875	272902	19471	14,016	0,000	 V 			14,781	52802	2,841	0,000	1,298	1,022	0	0	0,000	0,000
63	25,137	24,875	25,451	375496	17498	21,459	0,000	 V 			15,061	26654	5,628	0,000	0,837	1,019	0	0	0,000	0,000
64	25,637	25,451	25,685	103294	9294	11,115	0,000	 V 			15,380	5180	28,958	0,000	0,490	1,021	0	0	0,000	0,000
65	25,803	25,685	26,485	282785	12408	22,790	0,000	 V 			15,486	36839	4,072	0,000	0,169	1,007	0	0	0,000	0,000
66	26,603	26,485	26,699	41205	3305	12,468	0,000	 V 			15,997	1183	126,828	0,000	0,441	1,033	0	0	0,000	0,000
67	27,040	26,699	27,339	156450	7280	21,491	0,000	 V 			16,276	53492	2,804	0,000	0,245	1,017	0	0	0,000	0,000
68	27,629	27,339	27,904	88336	3334	26,494	0,000	 V 			16,653	17156	8,743	0,000	0,898	1,023	0	0	0,000	0,000
69	28,370	27,904	28,555	83332	3168	26,302	0,000	 V 			17,127	8114	18,486	0,000	0,705	1,028	0	0	0,000	0,000
70	28,703	28,555	29,259	67724	2489	27,214	0,000	 V 			17,339	14016	10,702	0,000	0,299	1,012	0	0	0,000	0,000
71	29,537	29,259	29,600	25782	2155	11,964	0,000	 V 			17,872	10416	14,401	0,000	0,784	1,031	0	0	0,000	0,000
72	29,653	29,600	29,813	18617	2028	9,180	0,000	 V 			17,946	819	183,087	0,000	0,044	1,004	0	0	0,000	0,000
73	29,973	29,813	30,304	18669	1333	14,004	0,000	 V 			18,151	88317	1,698	0,000	0,141	1,011	0	0	0,000	0,000
74	30,722	30,464	30,923	10036	739	13,584	0,000	   			18,629	102423	1,465	0,000	1,902	1,026	0	0	0,000	0,000
75	31,040	30,923	31,104	2045	199	10,290	0,000	 V 			18,832	7487	20,035	0,000	0,350	1,011	0	0	0,000	0,000
76	31,231	31,104	31,435	3489	336	10,390	0,000	 V 			18,954	157491	0,952	0,000	0,218	1,006	0	0	0,000	0,000
77	33,989	32,800	34,048	198105	6001	33,012	0,000	   			20,716	7311	20,517	0,000	2,896	1,093	0	0	0,000	0,000
78	34,513	34,048	34,613	230415	9678	23,809	0,000	 V 			21,051	17298	8,672	0,000	0,397	1,016	0	0	0,000	0,000
79	35,073	34,613	35,413	1117614	119114	9,383	0,000	 V 			21,409	602784	0,249	0,000	0,912	1,017	0	0	0,000	0,000
80	35,491	35,413	35,563	156755	21607	7,255	0,000	 V 			21,676	169850	0,883	0,000	1,591	1,012	0	0	0,000	0,000
81	35,597	35,563	35,744	133695	15987	8,363	0,000	 V 			21,744	49862	3,008	0,000	0,215	1,003	0	0	0,000	0,000
82	35,854	35,744	35,989	146726	11620	12,627	0,000	 V 			21,908	39083	3,838	0,000	0,378	1,008	0	0	0,000	0,000
83	36,038	35,989	36,096	50309	8045	6,253	0,000	 V 			22,025	511	293,698	0,000	0,052	1,005	0	0	0,000	0,000
84	36,339	36,096	36,491	174306	8692	20,055	0,000	 V 			22,218	10743	13,962	0,000	0,077	1,009	0	0	0,000	0,000
85	36,789	36,491	36,928	116322	4434	26,233	0,000	 V 			22,506	0	0,000	0,000	0,000	1,013	0	0	0,000	0,000
86	37,045	36,928	37,152	37739	3601	10,481	0,000	 V 			22,669	93842	1,598	0,000	0,000	1,007	0	0	0,000	0,000
87	37,235	37,152	37,397	14083	1527	9,223	0,000	 V 			22,790	0	0,000	0,000	0,000	1,005	0	0	0,000	0,000
88	37,927	37,792	38,069	2529	379	6,681	0,000	   			23,232	618624	0,242	0,964	0,000	1,019	0	0	0,000	0,000
89	38,920	38,667	39,968	1052870	37408	28,146	0,000	   			23,867	345211	0,435	2,944	4,338	1,027	0	0	0,000	0,000

[Compound Results(PDA)]
# of IDs	0

[PDA Multi Chromatogram(Ch1)]
# of Points	      4689
Interval(msec)	640
Start Time(min)	0
End Time(min)	50,0053
Intensity Units	mAU
Intensity Multiplier	1
Type	MultiChrom
Wavelength(nm)	254
Bandwidth(nm)	4
R.Time (min)	Intensity
0,00000	0
0,01067	0
0,02133	0
0,03200	0
0,04267	0
0,05333	0
0,06400	0
0,07467	0
0,08533	0
0,09600	0
0,10667	0
0,11733	3
0,12800	3
0,13867	1
0,14933	3
0,16000	3
0,17067	11
0,18133	6
0,19200	4
0,20267	5
0,21333	5
0,22400	14
0,23467	10
0,24533	7
0,25600	5
0,26667	-1
0,27733	5
0,28800	8
0,29867	6
0,30933	-1
0,32000	4
0,33067	5
0,34133	3
0,35200	2
0,36267	-10
0,37333	-4
0,38400	-4
0,39467	-3
0,40533	2
0,41600	1
0,42667	12
0,43733	12
0,44800	6
0,45867	2
0,46933	8
0,48000	6
0,49067	10
0,50133	8
0,51200	2
0,52267	9
0,53333	13
0,54400	4
0,55467	1
0,56533	8
0,57600	15
0,58667	4
0,59733	0
0,60800	7
0,61867	6
0,62933	3
0,64000	2
0,65067	2
0,66133	5
0,67200	5
0,68267	9
0,69333	10
0,70400	1
0,71467	-0
0,72533	-4
0,73600	-4
0,74667	0
0,75733	10
0,76800	4
0,77867	5
0,78933	8
0,80000	10
0,81067	7
0,82133	7
0,83200	5
0,84267	12
0,85333	13
0,86400	15
0,87467	12
0,88533	9
0,89600	6
0,90667	9
0,91733	6
0,92800	9
0,93867	8
0,94933	12
0,96000	14
0,97067	11
0,98133	6
0,99200	7
1,00267	3
1,01333	5
1,02400	8
1,03467	8
1,04533	10
1,05600	9
1,06667	8
1,07733	2
1,08800	7
1,09867	5
1,10933	8
1,12000	16
1,13067	19
1,14133	15
1,15200	19
1,16267	16
1,17333	36
1,18400	37
1,19467	42
1,20533	42
1,21600	45
1,22667	42
1,23733	52
1,24800	47
1,25867	52
1,26933	57
1,28000	69
1,29067	74
1,30133	93
1,31200	108
1,32267	139
1,33333	189
1,34400	253
1,35467	334
1,36533	471
1,37600	753
1,38667	1327
1,39733	2244
1,40800	3327
1,41867	4313
1,42933	5120
1,44000	5830
1,45067	6789
1,46133	8250
1,47200	10244
1,48267	12395
1,49333	14107
1,50400	15293
1,51467	16059
1,52533	16624
1,53600	17136
1,54667	17606
1,55733	17950
1,56800	18031
1,57867	17760
1,58933	17135
1,60000	16264
1,61067	15312
1,62133	14401
1,63200	13560
1,64267	12739
1,65333	11787
1,66400	10615
1,67467	9264
1,68533	7945
1,69600	6936
1,70667	6427
1,71733	6607
1,72800	8098
1,73867	12247
1,74933	18950
1,76000	24521
1,77067	26321
1,78133	24899
1,79200	22104
1,80267	19504
1,81333	17640
1,82400	16443
1,83467	15580
1,84533	14854
1,85600	14228
1,86667	13719
1,87733	13373
1,88800	13213
1,89867	13208
1,90933	13273
1,92000	13297
1,93067	13190
1,94133	12889
1,95200	12337
1,96267	11578
1,97333	10686
1,98400	9794
1,99467	9111
2,00533	9112
2,01600	10831
2,02667	15936
2,03733	25991
2,04800	41183
2,05867	59155
2,06933	76088
2,08000	88303
2,09067	93950
2,10133	93154
2,11200	87333
2,12267	78525
2,13333	68551
2,14400	58850
2,15467	50189
2,16533	42846
2,17600	36732
2,18667	31651
2,19733	27485
2,20800	24257
2,21867	22001
2,22933	20585
2,24000	19708
2,25067	18950
2,26133	17991
2,27200	16730
2,28267	15287
2,29333	13873
2,30400	12670
2,31467	11680
2,32533	10831
2,33600	10045
2,34667	9284
2,35733	8527
2,36800	7814
2,37867	7191
2,38933	6672
2,40000	6292
2,41067	6055
2,42133	5976
2,43200	6051
2,44267	6236
2,45333	6494
2,46400	6750
2,47467	6965
2,48533	7102
2,49600	7149
2,50667	7092
2,51733	6958
2,52800	6735
2,53867	6484
2,54933	6232
2,56000	6024
2,57067	5913
2,58133	5936
2,59200	6138
2,60267	6488
2,61333	6929
2,62400	7345
2,63467	7618
2,64533	7684
2,65600	7515
2,66667	7140
2,67733	6641
2,68800	6089
2,69867	5567
2,70933	5104
2,72000	4750
2,73067	4518
2,74133	4396
2,75200	4363
2,76267	4412
2,77333	4502
2,78400	4635
2,79467	4826
2,80533	5114
2,81600	5615
2,82667	6427
2,83733	7604
2,84800	9079
2,85867	10710
2,86933	12243
2,88000	13438
2,89067	14100
2,90133	14173
2,91200	13696
2,92267	12795
2,93333	11649
2,94400	10430
2,95467	9295
2,96533	8362
2,97600	7688
2,98667	7282
2,99733	7091
3,00800	7021
3,01867	6978
3,02933	6866
3,04000	6636
3,05067	6301
3,06133	5874
3,07200	5429
3,08267	4987
3,09333	4602
3,10400	4288
3,11467	4051
3,12533	3887
3,13600	3799
3,14667	3763
3,15733	3785
3,16800	3838
3,17867	3944
3,18933	4079
3,20000	4231
3,21067	4356
3,22133	4446
3,23200	4462
3,24267	4440
3,25333	4404
3,26400	4397
3,27467	4447
3,28533	4590
3,29600	4837
3,30667	5201
3,31733	5695
3,32800	6270
3,33867	6908
3,34933	7533
3,36000	8083
3,37067	8471
3,38133	8649
3,39200	8596
3,40267	8308
3,41333	7841
3,42400	7253
3,43467	6620
3,44533	5991
3,45600	5402
3,46667	4912
3,47733	4532
3,48800	4294
3,49867	4161
3,50933	4102
3,52000	4028
3,53067	3832
3,54133	3513
3,55200	3139
3,56267	2772
3,57333	2466
3,58400	2244
3,59467	2088
3,60533	1993
3,61600	1945
3,62667	1935
3,63733	1954
3,64800	1994
3,65867	2060
3,66933	2148
3,68000	2246
3,69067	2367
3,70133	2515
3,71200	2699
3,72267	2924
3,73333	3201
3,74400	3528
3,75467	3905
3,76533	4347
3,77600	4834
3,78667	5350
3,79733	5866
3,80800	6365
3,81867	6812
3,82933	7182
3,84000	7468
3,85067	7632
3,86133	7686
3,87200	7610
3,88267	7432
3,89333	7163
3,90400	6831
3,91467	6431
3,92533	6019
3,93600	5605
3,94667	5203
3,95733	4833
3,96800	4511
3,97867	4248
3,98933	4033
4,00000	3889
4,01067	3829
4,02133	3856
4,03200	3977
4,04267	4211
4,05333	4558
4,06400	5023
4,07467	5587
4,08533	6214
4,09600	6854
4,10667	7443
4,11733	7911
4,12800	8195
4,13867	8283
4,14933	8171
4,16000	7872
4,17067	7451
4,18133	6958
4,19200	6433
4,20267	5927
4,21333	5470
4,22400	5090
4,23467	4771
4,24533	4515
4,25600	4326
4,26667	4178
4,27733	4078
4,28800	4007
4,29867	3961
4,30933	3921
4,32000	3890
4,33067	3866
4,34133	3843
4,35200	3827
4,36267	3791
4,37333	3752
4,38400	3707
4,39467	3663
4,40533	3614
4,41600	3570
4,42667	3528
4,43733	3487
4,44800	3455
4,45867	3424
4,46933	3406
4,48000	3396
4,49067	3387
4,50133	3382
4,51200	3381
4,52267	3372
4,53333	3360
4,54400	3349
4,55467	3346
4,56533	3326
4,57600	3305
4,58667	3297
4,59733	3282
4,60800	3282
4,61867	3305
4,62933	3340
4,64000	3390
4,65067	3445
4,66133	3505
4,67200	3567
4,68267	3628
4,69333	3671
4,70400	3689
4,71467	3695
4,72533	3694
4,73600	3685
4,74667	3673
4,75733	3665
4,76800	3680
4,77867	3697
4,78933	3719
4,80000	3760
4,81067	3789
4,82133	3829
4,83200	3855
4,84267	3882
4,85333	3906
4,86400	3910
4,87467	3908
4,88533	3889
4,89600	3876
4,90667	3874
4,91733	3878
4,92800	3888
4,93867	3909
4,94933	3948
4,96000	3993
4,97067	4030
4,98133	4083
4,99200	4138
5,00267	4196
5,01333	4238
5,02400	4278
5,03467	4307
5,04533	4325
5,05600	4340
5,06667	4331
5,07733	4311
5,08800	4288
5,09867	4246
5,10933	4186
5,12000	4110
5,13067	4029
5,14133	3933
5,15200	3828
5,16267	3725
5,17333	3618
5,18400	3505
5,19467	3399
5,20533	3285
5,21600	3182
5,22667	3095
5,23733	3009
5,24800	2939
5,25867	2876
5,26933	2830
5,28000	2797
5,29067	2795
5,30133	2802
5,31200	2841
5,32267	2904
5,33333	3001
5,34400	3152
5,35467	3351
5,36533	3611
5,37600	3933
5,38667	4342
5,39733	4842
5,40800	5431
5,41867	6119
5,42933	6916
5,44000	7813
5,45067	8782
5,46133	9786
5,47200	10816
5,48267	11806
5,49333	12706
5,50400	13450
5,51467	14005
5,52533	14331
5,53600	14403
5,54667	14222
5,55733	13803
5,56800	13189
5,57867	12424
5,58933	11551
5,60000	10645
5,61067	9732
5,62133	8859
5,63200	8044
5,64267	7319
5,65333	6683
5,66400	6142
5,67467	5676
5,68533	5302
5,69600	5008
5,70667	4771
5,71733	4583
5,72800	4432
5,73867	4304
5,74933	4200
5,76000	4103
5,77067	4000
5,78133	3901
5,79200	3802
5,80267	3691
5,81333	3569
5,82400	3441
5,83467	3322
5,84533	3208
5,85600	3101
5,86667	3000
5,87733	2922
5,88800	2862
5,89867	2827
5,90933	2804
5,92000	2806
5,93067	2842
5,94133	2898
5,95200	2998
5,96267	3113
5,97333	3254
5,98400	3430
5,99467	3626
6,00533	3830
6,01600	4043
6,02667	4241
6,03733	4427
6,04800	4576
6,05867	4707
6,06933	4786
6,08000	4836
6,09067	4853
6,10133	4836
6,11200	4804
6,12267	4763
6,13333	4723
6,14400	4702
6,15467	4711
6,16533	4782
6,17600	4966
6,18667	5296
6,19733	5904
6,20800	6940
6,21867	8683
6,22933	11549
6,24000	16204
6,25067	23526
6,26133	34899
6,27200	51985
6,28267	76922
6,29333	112013
6,30400	159548
6,31467	221586
6,32533	298550
6,33600	389993
6,34667	492342
6,35733	601103
6,36800	708826
6,37867	808853
6,38933	894199
6,40000	959972
6,41067	1002875
6,42133	1021925
6,43200	1017981
6,44267	993062
6,45333	950430
6,46400	893576
6,47467	826326
6,48533	752313
6,49600	674614
6,50667	596515
6,51733	520179
6,52800	447923
6,53867	380909
6,54933	320399
6,56000	266530
6,57067	219644
6,58133	179381
6,59200	145516
6,60267	117294
6,61333	94160
6,62400	75365
6,63467	60329
6,64533	48392
6,65600	38983
6,66667	31652
6,67733	26028
6,68800	21825
6,69867	18824
6,70933	16928
6,72000	16123
6,73067	16501
6,74133	18135
6,75200	21122
6,76267	25482
6,77333	31105
6,78400	37771
6,79467	45037
6,80533	52449
6,81600	59477
6,82667	65684
6,83733	70723
6,84800	74386
6,85867	76622
6,86933	77468
6,88000	77056
6,89067	75591
6,90133	73284
6,91200	70361
6,92267	67019
6,93333	63471
6,94400	59875
6,95467	56396
6,96533	53102
6,97600	50093
6,98667	47418
6,99733	45098
7,00800	43121
7,01867	41427
7,02933	39959
7,04000	38622
7,05067	37347
7,06133	36058
7,07200	34693
7,08267	33208
7,09333	31578
7,10400	29810
7,11467	27942
7,12533	25999
7,13600	24051
7,14667	22152
7,15733	20349
7,16800	18686
7,17867	17210
7,18933	15932
7,20000	14878
7,21067	14059
7,22133	13470
7,23200	13118
7,24267	12993
7,25333	13080
7,26400	13363
7,27467	13817
7,28533	14407
7,29600	15095
7,30667	15810
7,31733	16518
7,32800	17147
7,33867	17643
7,34933	17951
7,36000	18066
7,37067	17964
7,38133	17651
7,39200	17133
7,40267	16445
7,41333	15651
7,42400	14766
7,43467	13838
7,44533	12919
7,45600	12026
7,46667	11185
7,47733	10409
7,48800	9701
7,49867	9082
7,50933	8536
7,52000	8060
7,53067	7646
7,54133	7286
7,55200	7004
7,56267	6771
7,57333	6591
7,58400	6457
7,59467	6360
7,60533	6302
7,61600	6277
7,62667	6277
7,63733	6308
7,64800	6339
7,65867	6382
7,66933	6407
7,68000	6422
7,69067	6432
7,70133	6426
7,71200	6418
7,72267	6404
7,73333	6400
7,74400	6390
7,75467	6381
7,76533	6382
7,77600	6391
7,78667	6414
7,79733	6431
7,80800	6441
7,81867	6455
7,82933	6453
7,84000	6442
7,85067	6415
7,86133	6379
7,87200	6324
7,88267	6264
7,89333	6203
7,90400	6138
7,91467	6087
7,92533	6041
7,93600	6016
7,94667	6002
7,95733	6014
7,96800	6055
7,97867	6124
7,98933	6201
8,00000	6293
8,01067	6386
8,02133	6473
8,03200	6551
8,04267	6606
8,05333	6629
8,06400	6622
8,07467	6580
8,08533	6515
8,09600	6435
8,10667	6356
8,11733	6291
8,12800	6268
8,13867	6297
8,14933	6400
8,16000	6567
8,17067	6833
8,18133	7157
8,19200	7558
8,20267	8005
8,21333	8451
8,22400	8868
8,23467	9235
8,24533	9504
8,25600	9684
8,26667	9762
8,27733	9747
8,28800	9640
8,29867	9506
8,30933	9349
8,32000	9203
8,33067	9101
8,34133	9071
8,35200	9124
8,36267	9252
8,37333	9457
8,38400	9724
8,39467	10033
8,40533	10345
8,41600	10635
8,42667	10867
8,43733	11027
8,44800	11103
8,45867	11078
8,46933	10952
8,48000	10742
8,49067	10478
8,50133	10181
8,51200	9873
8,52267	9564
8,53333	9292
8,54400	9075
8,55467	8934
8,56533	8893
8,57600	8980
8,58667	9241
8,59733	9693
8,60800	10381
8,61867	11353
8,62933	12631
8,64000	14232
8,65067	16179
8,66133	18389
8,67200	20820
8,68267	23360
8,69333	25897
8,70400	28227
8,71467	30217
8,72533	31712
8,73600	32616
8,74667	32857
8,75733	32422
8,76800	31375
8,77867	29806
8,78933	27840
8,80000	25616
8,81067	23289
8,82133	20971
8,83200	18781
8,84267	16790
8,85333	15030
8,86400	13540
8,87467	12301
8,88533	11302
8,89600	10511
8,90667	9908
8,91733	9454
8,92800	9123
8,93867	8903
8,94933	8757
8,96000	8670
8,97067	8630
8,98133	8623
8,99200	8638
9,00267	8651
9,01333	8661
9,02400	8641
9,03467	8596
9,04533	8530
9,05600	8441
9,06667	8313
9,07733	8153
9,08800	7986
9,09867	7785
9,10933	7581
9,12000	7367
9,13067	7160
9,14133	6950
9,15200	6756
9,16267	6561
9,17333	6382
9,18400	6213
9,19467	6065
9,20533	5937
9,21600	5833
9,22667	5755
9,23733	5699
9,24800	5670
9,25867	5672
9,26933	5704
9,28000	5745
9,29067	5827
9,30133	5924
9,31200	6041
9,32267	6160
9,33333	6289
9,34400	6413
9,35467	6535
9,36533	6651
9,37600	6756
9,38667	6856
9,39733	6939
9,40800	7016
9,41867	7102
9,42933	7188
9,44000	7280
9,45067	7408
9,46133	7561
9,47200	7727
9,48267	7925
9,49333	8146
9,50400	8386
9,51467	8626
9,52533	8850
9,53600	9054
9,54667	9222
9,55733	9356
9,56800	9459
9,57867	9518
9,58933	9580
9,60000	9666
9,61067	9778
9,62133	9981
9,63200	10281
9,64267	10724
9,65333	11331
9,66400	12097
9,67467	13025
9,68533	14075
9,69600	15228
9,70667	16399
9,71733	17519
9,72800	18513
9,73867	19321
9,74933	19877
9,76000	20137
9,77067	20097
9,78133	19772
9,79200	19195
9,80267	18394
9,81333	17472
9,82400	16491
9,83467	15496
9,84533	14541
9,85600	13668
9,86667	12896
9,87733	12241
9,88800	11682
9,89867	11202
9,90933	10805
9,92000	10460
9,93067	10159
9,94133	9879
9,95200	9635
9,96267	9416
9,97333	9220
9,98400	9072
9,99467	8980
10,00533	8958
10,01600	9023
10,02667	9216
10,03733	9542
10,04800	10028
10,05867	10694
10,06933	11557
10,08000	12639
10,09067	13935
10,10133	15456
10,11200	17167
10,12267	19073
10,13333	21097
10,14400	23214
10,15467	25324
10,16533	27342
10,17600	29154
10,18667	30659
10,19733	31778
10,20800	32451
10,21867	32656
10,22933	32391
10,24000	31730
10,25067	30731
10,26133	29523
10,27200	28191
10,28267	26838
10,29333	25547
10,30400	24358
10,31467	23271
10,32533	22311
10,33600	21453
10,34667	20701
10,35733	20026
10,36800	19458
10,37867	19043
10,38933	18817
10,40000	18851
10,41067	19199
10,42133	19925
10,43200	21025
10,44267	22502
10,45333	24287
10,46400	26275
10,47467	28332
10,48533	30298
10,49600	31982
10,50667	33258
10,51733	33988
10,52800	34107
10,53867	33583
10,54933	32453
10,56000	30810
10,57067	28769
10,58133	26474
10,59200	24061
10,60267	21661
10,61333	19398
10,62400	17314
10,63467	15487
10,64533	13916
10,65600	12620
10,66667	11573
10,67733	10744
10,68800	10115
10,69867	9644
10,70933	9311
10,72000	9067
10,73067	8917
10,74133	8830
10,75200	8793
10,76267	8790
10,77333	8810
10,78400	8855
10,79467	8899
10,80533	8943
10,81600	9000
10,82667	9052
10,83733	9098
10,84800	9136
10,85867	9155
10,86933	9165
10,88000	9174
10,89067	9159
10,90133	9152
10,91200	9180
10,92267	9326
10,93333	9680
10,94400	10433
10,95467	11849
10,96533	14342
10,97600	18502
10,98667	25207
10,99733	35435
11,00800	50563
11,01867	71914
11,02933	101092
11,04000	139121
11,05067	187039
11,06133	244758
11,07200	312075
11,08267	387311
11,09333	468434
11,10400	552299
11,11467	635408
11,12533	714118
11,13600	784358
11,14667	842677
11,15733	885897
11,16800	912100
11,17867	920189
11,18933	910265
11,20000	883669
11,21067	842374
11,22133	789506
11,23200	727854
11,24267	661048
11,25333	591686
11,26400	522686
11,27467	456047
11,28533	393505
11,29600	336298
11,30667	284805
11,31733	239386
11,32800	199796
11,33867	165934
11,34933	137196
11,36000	113150
11,37067	93156
11,38133	76760
11,39200	63349
11,40267	52484
11,41333	43683
11,42400	36611
11,43467	30932
11,44533	26392
11,45600	22771
11,46667	19890
11,47733	17592
11,48800	15765
11,49867	14316
11,50933	13145
11,52000	12211
11,53067	11465
11,54133	10861
11,55200	10366
11,56267	9966
11,57333	9644
11,58400	9383
11,59467	9172
11,60533	9005
11,61600	8883
11,62667	8800
11,63733	8726
11,64800	8690
11,65867	8660
11,66933	8677
11,68000	8698
11,69067	8740
11,70133	8806
11,71200	8886
11,72267	9004
11,73333	9158
11,74400	9331
11,75467	9529
11,76533	9752
11,77600	10008
11,78667	10271
11,79733	10517
11,80800	10757
11,81867	10973
11,82933	11162
11,84000	11296
11,85067	11390
11,86133	11430
11,87200	11443
11,88267	11405
11,89333	11328
11,90400	11236
11,91467	11122
11,92533	11008
11,93600	10884
11,94667	10737
11,95733	10579
11,96800	10403
11,97867	10204
11,98933	9993
12,00000	9754
12,01067	9503
12,02133	9239
12,03200	8999
12,04267	8780
12,05333	8607
12,06400	8499
12,07467	8476
12,08533	8558
12,09600	8768
12,10667	9133
12,11733	9674
12,12800	10405
12,13867	11348
12,14933	12506
12,16000	13865
12,17067	15388
12,18133	17030
12,19200	18717
12,20267	20356
12,21333	21872
12,22400	23149
12,23467	24112
12,24533	24690
12,25600	24845
12,26667	24600
12,27733	23961
12,28800	22984
12,29867	21736
12,30933	20312
12,32000	18802
12,33067	17280
12,34133	15823
12,35200	14478
12,36267	13291
12,37333	12279
12,38400	11446
12,39467	10778
12,40533	10277
12,41600	9913
12,42667	9659
12,43733	9497
12,44800	9402
12,45867	9368
12,46933	9371
12,48000	9392
12,49067	9429
12,50133	9474
12,51200	9523
12,52267	9576
12,53333	9633
12,54400	9689
12,55467	9771
12,56533	9847
12,57600	9931
12,58667	10010
12,59733	10073
12,60800	10142
12,61867	10186
12,62933	10196
12,64000	10204
12,65067	10187
12,66133	10178
12,67200	10172
12,68267	10180
12,69333	10223
12,70400	10309
12,71467	10447
12,72533	10641
12,73600	10891
12,74667	11190
12,75733	11539
12,76800	11898
12,77867	12274
12,78933	12616
12,80000	12916
12,81067	13129
12,82133	13245
12,83200	13257
12,84267	13142
12,85333	12920
12,86400	12620
12,87467	12248
12,88533	11839
12,89600	11428
12,90667	11037
12,91733	10689
12,92800	10404
12,93867	10192
12,94933	10062
12,96000	10023
12,97067	10044
12,98133	10136
12,99200	10285
13,00267	10469
13,01333	10672
13,02400	10890
13,03467	11107
13,04533	11299
13,05600	11477
13,06667	11630
13,07733	11821
13,08800	12187
13,09867	13182
13,10933	15984
13,12000	23058
13,13067	38218
13,14133	65765
13,15200	107407
13,16267	161060
13,17333	220226
13,18400	277685
13,19467	327120
13,20533	365364
13,21600	391630
13,22667	407169
13,23733	413942
13,24800	413965
13,25867	409008
13,26933	400415
13,28000	389158
13,29067	376026
13,30133	361484
13,31200	346137
13,32267	330216
13,33333	314105
13,34400	297966
13,35467	282096
13,36533	266588
13,37600	251609
13,38667	237158
13,39733	223354
13,40800	210231
13,41867	197799
13,42933	186053
13,44000	174965
13,45067	164563
13,46133	154791
13,47200	145660
13,48267	137085
13,49333	129096
13,50400	121602
13,51467	114606
13,52533	108029
13,53600	101876
13,54667	96090
13,55733	90661
13,56800	85551
13,57867	80755
13,58933	76247
13,60000	72037
13,61067	68098
13,62133	64413
13,63200	61008
13,64267	57826
13,65333	54878
13,66400	52123
13,67467	49564
13,68533	47169
13,69600	44942
13,70667	42829
13,71733	40832
13,72800	38937
13,73867	37138
13,74933	35430
13,76000	33796
13,77067	32247
13,78133	30777
13,79200	29394
13,80267	28105
13,81333	26924
13,82400	25839
13,83467	24860
13,84533	23971
13,85600	23176
13,86667	22454
13,87733	21796
13,88800	21216
13,89867	20678
13,90933	20196
13,92000	19756
13,93067	19351
13,94133	18980
13,95200	18623
13,96267	18280
13,97333	17951
13,98400	17633
13,99467	17315
14,00533	17006
14,01600	16700
14,02667	16390
14,03733	16095
14,04800	15832
14,05867	15573
14,06933	15338
14,08000	15144
14,09067	14982
14,10133	14867
14,11200	14815
14,12267	14833
14,13333	14935
14,14400	15125
14,15467	15429
14,16533	15850
14,17600	16392
14,18667	17061
14,19733	17840
14,20800	18711
14,21867	19653
14,22933	20618
14,24000	21545
14,25067	22394
14,26133	23106
14,27200	23645
14,28267	23964
14,29333	24048
14,30400	23912
14,31467	23565
14,32533	23024
14,33600	22331
14,34667	21539
14,35733	20697
14,36800	19837
14,37867	19002
14,38933	18223
14,40000	17511
14,41067	16878
14,42133	16322
14,43200	15865
14,44267	15471
14,45333	15145
14,46400	14903
14,47467	14714
14,48533	14599
14,49600	14546
14,50667	14567
14,51733	14631
14,52800	14753
14,53867	14916
14,54933	15115
14,56000	15337
14,57067	15567
14,58133	15805
14,59200	16028
14,60267	16256
14,61333	16463
14,62400	16653
14,63467	16821
14,64533	16964
14,65600	17096
14,66667	17231
14,67733	17346
14,68800	17460
14,69867	17560
14,70933	17649
14,72000	17728
14,73067	17781
14,74133	17820
14,75200	17833
14,76267	17811
14,77333	17751
14,78400	17658
14,79467	17520
14,80533	17348
14,81600	17149
14,82667	16936
14,83733	16717
14,84800	16499
14,85867	16274
14,86933	16077
14,88000	15896
14,89067	15747
14,90133	15651
14,91200	15601
14,92267	15625
14,93333	15726
14,94400	15929
14,95467	16221
14,96533	16629
14,97600	17149
14,98667	17775
14,99733	18505
15,00800	19309
15,01867	20142
15,02933	20955
15,04000	21710
15,05067	22340
15,06133	22796
15,07200	23058
15,08267	23090
15,09333	22897
15,10400	22499
15,11467	21921
15,12533	21222
15,13600	20452
15,14667	19664
15,15733	18899
15,16800	18206
15,17867	17585
15,18933	17068
15,20000	16650
15,21067	16336
15,22133	16117
15,23200	15958
15,24267	15860
15,25333	15797
15,26400	15750
15,27467	15731
15,28533	15737
15,29600	15753
15,30667	15792
15,31733	15865
15,32800	15961
15,33867	16098
15,34933	16264
15,36000	16436
15,37067	16620
15,38133	16785
15,39200	16938
15,40267	17053
15,41333	17127
15,42400	17150
15,43467	17141
15,44533	17101
15,45600	17036
15,46667	16971
15,47733	16934
15,48800	16906
15,49867	16915
15,50933	16970
15,52000	17103
15,53067	17265
15,54133	17489
15,55200	17766
15,56267	18090
15,57333	18458
15,58400	18863
15,59467	19303
15,60533	19773
15,61600	20274
15,62667	20784
15,63733	21291
15,64800	21778
15,65867	22207
15,66933	22567
15,68000	22832
15,69067	22957
15,70133	22957
15,71200	22795
15,72267	22514
15,73333	22103
15,74400	21604
15,75467	21040
15,76533	20443
15,77600	19825
15,78667	19234
15,79733	18656
15,80800	18124
15,81867	17644
15,82933	17220
15,84000	16857
15,85067	16578
15,86133	16381
15,87200	16283
15,88267	16273
15,89333	16361
15,90400	16543
15,91467	16805
15,92533	17131
15,93600	17492
15,94667	17873
15,95733	18229
15,96800	18535
15,97867	18785
15,98933	18930
16,00000	18982
16,01067	18945
16,02133	18810
16,03200	18604
16,04267	18349
16,05333	18081
16,06400	17817
16,07467	17582
16,08533	17382
16,09600	17248
16,10667	17179
16,11733	17180
16,12800	17242
16,13867	17378
16,14933	17561
16,16000	17800
16,17067	18071
16,18133	18379
16,19200	18699
16,20267	19019
16,21333	19324
16,22400	19606
16,23467	19862
16,24533	20062
16,25600	20214
16,26667	20307
16,27733	20344
16,28800	20320
16,29867	20249
16,30933	20139
16,32000	19959
16,33067	19748
16,34133	19483
16,35200	19187
16,36267	18841
16,37333	18483
16,38400	18111
16,39467	17741
16,40533	17399
16,41600	17099
16,42667	16856
16,43733	16675
16,44800	16565
16,45867	16536
16,46933	16563
16,48000	16660
16,49067	16799
16,50133	16959
16,51200	17133
16,52267	17293
16,53333	17442
16,54400	17557
16,55467	17638
16,56533	17689
16,57600	17705
16,58667	17688
16,59733	17655
16,60800	17600
16,61867	17537
16,62933	17483
16,64000	17420
16,65067	17366
16,66133	17304
16,67200	17251
16,68267	17204
16,69333	17172
16,70400	17131
16,71467	17100
16,72533	17070
16,73600	17065
16,74667	17077
16,75733	17112
16,76800	17183
16,77867	17284
16,78933	17414
16,80000	17581
16,81067	17765
16,82133	17963
16,83200	18147
16,84267	18320
16,85333	18456
16,86400	18559
16,87467	18614
16,88533	18627
16,89600	18586
16,90667	18504
16,91733	18391
16,92800	18268
16,93867	18141
16,94933	18027
16,96000	17952
16,97067	17908
16,98133	17922
16,99200	17985
17,00267	18072
17,01333	18209
17,02400	18352
17,03467	18489
17,04533	18599
17,05600	18664
17,06667	18693
17,07733	18651
17,08800	18548
17,09867	18384
17,10933	18175
17,12000	17934
17,13067	17653
17,14133	17361
17,15200	17067
17,16267	16780
17,17333	16491
17,18400	16230
17,19467	15999
17,20533	15795
17,21600	15619
17,22667	15491
17,23733	15381
17,24800	15321
17,25867	15289
17,26933	15294
17,28000	15329
17,29067	15378
17,30133	15455
17,31200	15547
17,32267	15635
17,33333	15721
17,34400	15799
17,35467	15872
17,36533	15923
17,37600	15958
17,38667	15977
17,39733	15990
17,40800	16008
17,41867	16036
17,42933	16108
17,44000	16199
17,45067	16353
17,46133	16554
17,47200	16820
17,48267	17143
17,49333	17520
17,50400	17941
17,51467	18397
17,52533	18861
17,53600	19330
17,54667	19772
17,55733	20193
17,56800	20593
17,57867	20951
17,58933	21280
17,60000	21613
17,61067	21969
17,62133	22358
17,63200	22795
17,64267	23313
17,65333	23902
17,66400	24544
17,67467	25202
17,68533	25851
17,69600	26440
17,70667	26915
17,71733	27254
17,72800	27411
17,73867	27389
17,74933	27170
17,76000	26804
17,77067	26309
17,78133	25729
17,79200	25093
17,80267	24444
17,81333	23812
17,82400	23216
17,83467	22686
17,84533	22232
17,85600	21860
17,86667	21554
17,87733	21330
17,88800	21180
17,89867	21082
17,90933	21026
17,92000	20995
17,93067	20959
17,94133	20898
17,95200	20804
17,96267	20662
17,97333	20473
17,98400	20235
17,99467	19964
18,00533	19676
18,01600	19378
18,02667	19093
18,03733	18826
18,04800	18612
18,05867	18431
18,06933	18312
18,08000	18231
18,09067	18208
18,10133	18207
18,11200	18236
18,12267	18281
18,13333	18321
18,14400	18363
18,15467	18394
18,16533	18402
18,17600	18393
18,18667	18371
18,19733	18321
18,20800	18265
18,21867	18189
18,22933	18105
18,24000	18017
18,25067	17930
18,26133	17841
18,27200	17749
18,28267	17671
18,29333	17611
18,30400	17562
18,31467	17544
18,32533	17554
18,33600	17598
18,34667	17678
18,35733	17784
18,36800	17915
18,37867	18081
18,38933	18260
18,40000	18462
18,41067	18674
18,42133	18910
18,43200	19160
18,44267	19423
18,45333	19704
18,46400	19983
18,47467	20274
18,48533	20541
18,49600	20785
18,50667	20977
18,51733	21100
18,52800	21134
18,53867	21076
18,54933	20926
18,56000	20686
18,57067	20388
18,58133	20046
18,59200	19677
18,60267	19314
18,61333	18978
18,62400	18682
18,63467	18442
18,64533	18262
18,65600	18139
18,66667	18077
18,67733	18050
18,68800	18065
18,69867	18108
18,70933	18158
18,72000	18222
18,73067	18292
18,74133	18355
18,75200	18404
18,76267	18439
18,77333	18460
18,78400	18467
18,79467	18455
18,80533	18426
18,81600	18394
18,82667	18353
18,83733	18293
18,84800	18248
18,85867	18210
18,86933	18176
18,88000	18170
18,89067	18182
18,90133	18228
18,91200	18296
18,92267	18402
18,93333	18525
18,94400	18676
18,95467	18847
18,96533	19013
18,97600	19204
18,98667	19403
18,99733	19609
19,00800	19810
19,01867	20029
19,02933	20243
19,04000	20459
19,05067	20670
19,06133	20882
19,07200	21084
19,08267	21264
19,09333	21414
19,10400	21540
19,11467	21634
19,12533	21699
19,13600	21723
19,14667	21729
19,15733	21714
19,16800	21701
19,17867	21684
19,18933	21704
19,20000	21740
19,21067	21845
19,22133	21980
19,23200	22174
19,24267	22428
19,25333	22724
19,26400	23039
19,27467	23374
19,28533	23700
19,29600	23980
19,30667	24198
19,31733	24313
19,32800	24319
19,33867	24218
19,34933	24000
19,36000	23675
19,37067	23269
19,38133	22807
19,39200	22316
19,40267	21829
19,41333	21377
19,42400	20973
19,43467	20654
19,44533	20411
19,45600	20271
19,46667	20250
19,47733	20382
19,48800	20728
19,49867	21382
19,50933	22476
19,52000	24226
19,53067	26891
19,54133	30808
19,55200	36331
19,56267	43883
19,57333	53746
19,58400	66208
19,59467	81184
19,60533	98495
19,61600	117470
19,62667	137283
19,63733	156704
19,64800	174493
19,65867	189335
19,66933	200105
19,68000	206033
19,69067	206752
19,70133	202339
19,71200	193369
19,72267	180628
19,73333	165276
19,74400	148312
19,75467	130930
19,76533	113925
19,77600	98094
19,78667	83809
19,79733	71374
19,80800	60807
19,81867	52059
19,82933	44930
19,84000	39231
19,85067	34724
19,86133	31225
19,87200	28565
19,88267	26581
19,89333	25194
19,90400	24304
19,91467	23867
19,92533	23827
19,93600	24148
19,94667	24793
19,95733	25705
19,96800	26824
19,97867	28065
19,98933	29341
20,00000	30560
20,01067	31630
20,02133	32461
20,03200	32970
20,04267	33105
20,05333	32889
20,06400	32318
20,07467	31454
20,08533	30367
20,09600	29162
20,10667	27887
20,11733	26645
20,12800	25507
20,13867	24540
20,14933	23815
20,16000	23413
20,17067	23447
20,18133	24084
20,19200	25603
20,20267	28420
20,21333	33162
20,22400	40733
20,23467	52278
20,24533	69417
20,25600	93819
20,26667	127592
20,27733	172284
20,28800	229575
20,29867	299607
20,30933	381911
20,32000	473362
20,33067	570070
20,34133	665891
20,35200	754884
20,36267	830463
20,37333	887488
20,38400	922547
20,39467	933854
20,40533	921629
20,41600	888092
20,42667	836265
20,43733	770686
20,44800	695591
20,45867	616050
20,46933	535808
20,48000	458651
20,49067	386863
20,50133	322501
20,51200	266111
20,52267	218023
20,53333	177708
20,54400	144605
20,55467	117807
20,56533	96342
20,57600	79339
20,58667	65949
20,59733	55540
20,60800	47455
20,61867	41238
20,62933	36471
20,64000	32867
20,65067	30169
20,66133	28186
20,67200	26765
20,68267	25779
20,69333	25117
20,70400	24712
20,71467	24487
20,72533	24387
20,73600	24378
20,74667	24416
20,75733	24456
20,76800	24482
20,77867	24498
20,78933	24460
20,80000	24360
20,81067	24210
20,82133	24007
20,83200	23745
20,84267	23470
20,85333	23180
20,86400	22900
20,87467	22631
20,88533	22405
20,89600	22232
20,90667	22112
20,91733	22040
20,92800	22023
20,93867	22057
20,94933	22133
20,96000	22240
20,97067	22373
20,98133	22554
20,99200	22779
21,00267	23040
21,01333	23351
21,02400	23736
21,03467	24189
21,04533	24706
21,05600	25283
21,06667	25897
21,07733	26523
21,08800	27131
21,09867	27669
21,10933	28125
21,12000	28450
21,13067	28606
21,14133	28589
21,15200	28367
21,16267	27984
21,17333	27447
21,18400	26784
21,19467	26042
21,20533	25262
21,21600	24503
21,22667	23807
21,23733	23212
21,24800	22728
21,25867	22381
21,26933	22175
21,28000	22114
21,29067	22176
21,30133	22362
21,31200	22662
21,32267	23068
21,33333	23580
21,34400	24211
21,35467	24963
21,36533	25846
21,37600	26882
21,38667	28105
21,39733	29559
21,40800	31294
21,41867	33400
21,42933	36038
21,44000	39426
21,45067	43834
21,46133	49612
21,47200	57180
21,48267	66916
21,49333	79299
21,50400	94556
21,51467	112917
21,52533	134225
21,53600	158231
21,54667	184118
21,55733	211062
21,56800	237651
21,57867	262700
21,58933	284705
21,60000	302432
21,61067	314783
21,62133	321078
21,63200	321053
21,64267	314864
21,65333	303013
21,66400	286426
21,67467	266012
21,68533	243121
21,69600	218786
21,70667	194243
21,71733	170295
21,72800	147758
21,73867	127089
21,74933	108712
21,76000	92644
21,77067	78932
21,78133	67391
21,79200	57887
21,80267	50148
21,81333	43921
21,82400	38958
21,83467	35042
21,84533	31981
21,85600	29608
21,86667	27779
21,87733	26380
21,88800	25318
21,89867	24532
21,90933	23956
21,92000	23531
21,93067	23238
21,94133	23047
21,95200	22921
21,96267	22852
21,97333	22827
21,98400	22820
21,99467	22833
22,00533	22849
22,01600	22866
22,02667	22894
22,03733	22927
22,04800	22967
22,05867	23032
22,06933	23098
22,08000	23171
22,09067	23253
22,10133	23333
22,11200	23373
22,12267	23390
22,13333	23364
22,14400	23280
22,15467	23139
22,16533	22948
22,17600	22734
22,18667	22485
22,19733	22245
22,20800	22015
22,21867	21825
22,22933	21684
22,24000	21612
22,25067	21582
22,26133	21621
22,27200	21704
22,28267	21826
22,29333	21962
22,30400	22117
22,31467	22247
22,32533	22357
22,33600	22433
22,34667	22495
22,35733	22522
22,36800	22560
22,37867	22603
22,38933	22658
22,40000	22760
22,41067	22900
22,42133	23066
22,43200	23263
22,44267	23460
22,45333	23626
22,46400	23762
22,47467	23807
22,48533	23771
22,49600	23634
22,50667	23394
22,51733	23079
22,52800	22693
22,53867	22261
22,54933	21864
22,56000	21512
22,57067	21281
22,58133	21264
22,59200	21568
22,60267	22381
22,61333	23926
22,62400	26553
22,63467	30670
22,64533	36879
22,65600	45768
22,66667	58099
22,67733	74414
22,68800	95307
22,69867	120935
22,70933	151019
22,72000	184872
22,73067	221037
22,74133	257837
22,75200	292840
22,76267	323924
22,77333	348827
22,78400	365984
22,79467	374340
22,80533	373548
22,81600	364229
22,82667	347366
22,83733	324645
22,84800	297758
22,85867	268653
22,86933	238934
22,88000	209971
22,89067	182878
22,90133	158220
22,91200	136497
22,92267	117595
22,93333	101501
22,94400	87901
22,95467	76529
22,96533	66996
22,97600	59032
22,98667	52354
22,99733	46759
23,00800	42039
23,01867	38072
23,02933	34716
23,04000	31903
23,05067	29546
23,06133	27582
23,07200	25974
23,08267	24664
23,09333	23636
23,10400	22846
23,11467	22257
23,12533	21866
23,13600	21635
23,14667	21569
23,15733	21640
23,16800	21841
23,17867	22163
23,18933	22583
23,20000	23067
23,21067	23603
23,22133	24142
23,23200	24644
23,24267	25078
23,25333	25407
23,26400	25602
23,27467	25630
23,28533	25509
23,29600	25228
23,30667	24811
23,31733	24301
23,32800	23696
23,33867	23050
23,34933	22380
23,36000	21741
23,37067	21118
23,38133	20536
23,39200	20010
23,40267	19552
23,41333	19158
23,42400	18830
23,43467	18549
23,44533	18336
23,45600	18171
23,46667	18069
23,47733	18001
23,48800	17979
23,49867	18009
23,50933	18069
23,52000	18192
23,53067	18373
23,54133	18637
23,55200	18978
23,56267	19400
23,57333	19916
23,58400	20526
23,59467	21199
23,60533	21931
23,61600	22673
23,62667	23385
23,63733	24030
23,64800	24559
23,65867	24926
23,66933	25091
23,68000	25056
23,69067	24822
23,70133	24416
23,71200	23874
23,72267	23236
23,73333	22552
23,74400	21868
23,75467	21211
23,76533	20607
23,77600	20069
23,78667	19611
23,79733	19229
23,80800	18931
23,81867	18687
23,82933	18493
23,84000	18356
23,85067	18250
23,86133	18158
23,87200	18098
23,88267	18053
23,89333	18009
23,90400	17972
23,91467	17942
23,92533	17929
23,93600	17934
23,94667	17956
23,95733	18032
23,96800	18178
23,97867	18436
23,98933	18831
24,00000	19415
24,01067	20243
24,02133	21383
24,03200	22923
24,04267	24910
24,05333	27432
24,06400	30521
24,07467	34252
24,08533	38600
24,09600	43559
24,10667	49000
24,11733	54812
24,12800	60780
24,13867	66660
24,14933	72173
24,16000	77028
24,17067	80976
24,18133	83754
24,19200	85212
24,20267	85284
24,21333	83986
24,22400	81414
24,23467	77741
24,24533	73216
24,25600	68091
24,26667	62657
24,27733	57152
24,28800	51822
24,29867	46834
24,30933	42312
24,32000	38350
24,33067	34944
24,34133	32111
24,35200	29776
24,36267	27903
24,37333	26416
24,38400	25250
24,39467	24317
24,40533	23570
24,41600	22950
24,42667	22440
24,43733	21986
24,44800	21589
24,45867	21226
24,46933	20905
24,48000	20608
24,49067	20359
24,50133	20143
24,51200	19979
24,52267	19880
24,53333	19879
24,54400	19959
24,55467	20158
24,56533	20498
24,57600	20993
24,58667	21639
24,59733	22447
24,60800	23404
24,61867	24476
24,62933	25627
24,64000	26794
24,65067	27907
24,66133	28913
24,67200	29732
24,68267	30317
24,69333	30633
24,70400	30650
24,71467	30370
24,72533	29824
24,73600	29041
24,74667	28063
24,75733	26953
24,76800	25789
24,77867	24619
24,78933	23492
24,80000	22448
24,81067	21519
24,82133	20729
24,83200	20090
24,84267	19611
24,85333	19288
24,86400	19116
24,87467	19106
24,88533	19242
24,89600	19518
24,90667	19909
24,91733	20412
24,92800	20992
24,93867	21620
24,94933	22264
24,96000	22890
24,97067	23456
24,98133	23951
24,99200	24364
25,00267	24692
25,01333	24946
25,02400	25166
25,03467	25378
25,04533	25613
25,05600	25919
25,06667	26304
25,07733	26760
25,08800	27264
25,09867	27786
25,10933	28255
25,12000	28643
25,13067	28862
25,14133	28885
25,15200	28694
25,16267	28287
25,17333	27665
25,18400	26870
25,19467	25954
25,20533	24979
25,21600	23984
25,22667	23006
25,23733	22101
25,24800	21287
25,25867	20571
25,26933	19967
25,28000	19457
25,29067	19024
25,30133	18666
25,31200	18351
25,32267	18091
25,33333	17844
25,34400	17618
25,35467	17406
25,36533	17207
25,37600	17015
25,38667	16837
25,39733	16666
25,40800	16521
25,41867	16392
25,42933	16296
25,44000	16216
25,45067	16184
25,46133	16188
25,47200	16232
25,48267	16342
25,49333	16503
25,50400	16727
25,51467	17005
25,52533	17348
25,53600	17761
25,54667	18206
25,55733	18684
25,56800	19159
25,57867	19622
25,58933	20041
25,60000	20397
25,61067	20663
25,62133	20835
25,63200	20917
25,64267	20913
25,65333	20846
25,66400	20750
25,67467	20655
25,68533	20610
25,69600	20642
25,70667	20770
25,71733	21008
25,72800	21367
25,73867	21834
25,74933	22339
25,76000	22867
25,77067	23362
25,78133	23764
25,79200	24024
25,80267	24111
25,81333	24018
25,82400	23736
25,83467	23289
25,84533	22719
25,85600	22062
25,86667	21349
25,87733	20634
25,88800	19957
25,89867	19346
25,90933	18809
25,92000	18340
25,93067	17955
25,94133	17642
25,95200	17399
25,96267	17201
25,97333	17045
25,98400	16910
25,99467	16793
26,00533	16696
26,01600	16612
26,02667	16526
26,03733	16449
26,04800	16379
26,05867	16311
26,06933	16245
26,08000	16197
26,09067	16149
26,10133	16113
26,11200	16074
26,12267	16042
26,13333	16028
26,14400	15998
26,15467	15980
26,16533	15960
26,17600	15945
26,18667	15937
26,19733	15931
26,20800	15918
26,21867	15916
26,22933	15908
26,24000	15899
26,25067	15882
26,26133	15869
26,27200	15844
26,28267	15822
26,29333	15792
26,30400	15769
26,31467	15740
26,32533	15704
26,33600	15671
26,34667	15630
26,35733	15590
26,36800	15541
26,37867	15498
26,38933	15461
26,40000	15411
26,41067	15366
26,42133	15323
26,43200	15271
26,44267	15240
26,45333	15206
26,46400	15171
26,47467	15153
26,48533	15147
26,49600	15154
26,50667	15165
26,51733	15191
26,52800	15227
26,53867	15260
26,54933	15294
26,56000	15325
26,57067	15355
26,58133	15377
26,59200	15375
26,60267	15388
26,61333	15378
26,62400	15360
26,63467	15340
26,64533	15315
26,65600	15310
26,66667	15296
26,67733	15277
26,68800	15272
26,69867	15267
26,70933	15273
26,72000	15272
26,73067	15269
26,74133	15275
26,75200	15269
26,76267	15270
26,77333	15263
26,78400	15271
26,79467	15268
26,80533	15270
26,81600	15277
26,82667	15282
26,83733	15300
26,84800	15328
26,85867	15361
26,86933	15407
26,88000	15471
26,89067	15569
26,90133	15692
26,91200	15881
26,92267	16105
26,93333	16383
26,94400	16714
26,95467	17089
26,96533	17495
26,97600	17926
26,98667	18353
26,99733	18747
27,00800	19084
27,01867	19345
27,02933	19517
27,04000	19570
27,05067	19514
27,06133	19368
27,07200	19123
27,08267	18825
27,09333	18488
27,10400	18126
27,11467	17766
27,12533	17421
27,13600	17091
27,14667	16788
27,15733	16521
27,16800	16282
27,17867	16079
27,18933	15889
27,20000	15718
27,21067	15569
27,22133	15439
27,23200	15312
27,24267	15190
27,25333	15083
27,26400	14985
27,27467	14899
27,28533	14817
27,29600	14746
27,30667	14691
27,31733	14651
27,32800	14632
27,33867	14629
27,34933	14646
27,36000	14674
27,37067	14720
27,38133	14798
27,39200	14882
27,40267	14986
27,41333	15099
27,42400	15200
27,43467	15310
27,44533	15406
27,45600	15495
27,46667	15562
27,47733	15607
27,48800	15636
27,49867	15655
27,50933	15649
27,52000	15655
27,53067	15667
27,54133	15673
27,55200	15692
27,56267	15719
27,57333	15756
27,58400	15785
27,59467	15830
27,60533	15873
27,61600	15895
27,62667	15904
27,63733	15900
27,64800	15875
27,65867	15836
27,66933	15775
27,68000	15705
27,69067	15617
27,70133	15516
27,71200	15409
27,72267	15288
27,73333	15167
27,74400	15051
27,75467	14934
27,76533	14824
27,77600	14710
27,78667	14617
27,79733	14535
27,80800	14456
27,81867	14378
27,82933	14309
27,84000	14266
27,85067	14223
27,86133	14196
27,87200	14180
27,88267	14165
27,89333	14158
27,90400	14154
27,91467	14173
27,92533	14182
27,93600	14202
27,94667	14216
27,95733	14232
27,96800	14257
27,97867	14283
27,98933	14302
28,00000	14312
28,01067	14325
28,02133	14329
28,03200	14338
28,04267	14357
28,05333	14370
28,06400	14382
28,07467	14405
28,08533	14428
28,09600	14457
28,10667	14492
28,11733	14524
28,12800	14560
28,13867	14597
28,14933	14637
28,16000	14672
28,17067	14696
28,18133	14732
28,19200	14756
28,20267	14782
28,21333	14804
28,22400	14849
28,23467	14893
28,24533	14948
28,25600	15035
28,26667	15123
28,27733	15226
28,28800	15349
28,29867	15481
28,30933	15621
28,32000	15748
28,33067	15873
28,34133	15971
28,35200	16048
28,36267	16081
28,37333	16090
28,38400	16062
28,39467	16008
28,40533	15932
28,41600	15845
28,42667	15754
28,43733	15660
28,44800	15571
28,45867	15482
28,46933	15405
28,48000	15350
28,49067	15283
28,50133	15228
28,51200	15180
28,52267	15145
28,53333	15114
28,54400	15093
28,55467	15078
28,56533	15085
28,57600	15092
28,58667	15131
28,59733	15170
28,60800	15231
28,61867	15285
28,62933	15357
28,64000	15424
28,65067	15469
28,66133	15506
28,67200	15542
28,68267	15562
28,69333	15564
28,70400	15568
28,71467	15563
28,72533	15546
28,73600	15535
28,74667	15534
28,75733	15523
28,76800	15522
28,77867	15512
28,78933	15505
28,80000	15492
28,81067	15463
28,82133	15423
28,83200	15364
28,84267	15297
28,85333	15222
28,86400	15132
28,87467	15038
28,88533	14958
28,89600	14878
28,90667	14803
28,91733	14749
28,92800	14705
28,93867	14664
28,94933	14638
28,96000	14624
28,97067	14613
28,98133	14611
28,99200	14594
29,00267	14580
29,01333	14559
29,02400	14538
29,03467	14515
29,04533	14472
29,05600	14430
29,06667	14373
29,07733	14317
29,08800	14256
29,09867	14186
29,10933	14123
29,12000	14070
29,13067	14015
29,14133	13974
29,15200	13919
29,16267	13878
29,17333	13840
29,18400	13809
29,19467	13776
29,20533	13753
29,21600	13738
29,22667	13717
29,23733	13704
29,24800	13702
29,25867	13699
29,26933	13704
29,28000	13711
29,29067	13716
29,30133	13735
29,31200	13759
29,32267	13785
29,33333	13814
29,34400	13850
29,35467	13893
29,36533	13952
29,37600	14023
29,38667	14092
29,39733	14187
29,40800	14296
29,41867	14425
29,42933	14564
29,44000	14713
29,45067	14869
29,46133	15031
29,47200	15187
29,48267	15317
29,49333	15434
29,50400	15529
29,51467	15591
29,52533	15626
29,53600	15630
29,54667	15627
29,55733	15600
29,56800	15570
29,57867	15554
29,58933	15539
29,60000	15530
29,61067	15534
29,62133	15551
29,63200	15567
29,64267	15564
29,65333	15558
29,66400	15540
29,67467	15494
29,68533	15422
29,69600	15330
29,70667	15221
29,71733	15092
29,72800	14943
29,73867	14796
29,74933	14665
29,76000	14535
29,77067	14417
29,78133	14328
29,79200	14250
29,80267	14213
29,81333	14186
29,82400	14189
29,83467	14201
29,84533	14242
29,85600	14301
29,86667	14362
29,87733	14442
29,88800	14529
29,89867	14624
29,90933	14721
29,92000	14805
29,93067	14876
29,94133	14930
29,95200	14976
29,96267	15008
29,97333	15015
29,98400	15008
29,99467	14975
30,00533	14927
30,01600	14876
30,02667	14806
30,03733	14727
30,04800	14649
30,05867	14578
30,06933	14487
30,08000	14407
30,09067	14335
30,10133	14267
30,11200	14199
30,12267	14159
30,13333	14117
30,14400	14071
30,15467	14040
30,16533	14001
30,17600	13973
30,18667	13960
30,19733	13936
30,20800	13914
30,21867	13907
30,22933	13895
30,24000	13875
30,25067	13865
30,26133	13864
30,27200	13855
30,28267	13842
30,29333	13842
30,30400	13839
30,31467	13841
30,32533	13839
30,33600	13837
30,34667	13840
30,35733	13846
30,36800	13846
30,37867	13849
30,38933	13849
30,40000	13849
30,41067	13848
30,42133	13850
30,43200	13840
30,44267	13841
30,45333	13838
30,46400	13835
30,47467	13848
30,48533	13845
30,49600	13843
30,50667	13849
30,51733	13870
30,52800	13881
30,53867	13899
30,54933	13935
30,56000	13966
30,57067	13991
30,58133	14029
30,59200	14083
30,60267	14123
30,61333	14172
30,62400	14227
30,63467	14285
30,64533	14331
30,65600	14385
30,66667	14435
30,67733	14480
30,68800	14528
30,69867	14567
30,70933	14587
30,72000	14605
30,73067	14597
30,74133	14595
30,75200	14570
30,76267	14541
30,77333	14510
30,78400	14466
30,79467	14425
30,80533	14384
30,81600	14328
30,82667	14282
30,83733	14248
30,84800	14212
30,85867	14180
30,86933	14152
30,88000	14130
30,89067	14116
30,90133	14106
30,91200	14085
30,92267	14084
30,93333	14091
30,94400	14092
30,95467	14083
30,96533	14083
30,97600	14097
30,98667	14101
30,99733	14107
31,00800	14113
31,01867	14104
31,02933	14107
31,04000	14103
31,05067	14094
31,06133	14088
31,07200	14082
31,08267	14066
31,09333	14057
31,10400	14051
31,11467	14055
31,12533	14065
31,13600	14083
31,14667	14095
31,15733	14115
31,16800	14144
31,17867	14166
31,18933	14194
31,20000	14218
31,21067	14245
31,22133	14262
31,23200	14263
31,24267	14260
31,25333	14248
31,26400	14231
31,27467	14219
31,28533	14188
31,29600	14155
31,30667	14130
31,31733	14098
31,32800	14074
31,33867	14050
31,34933	14020
31,36000	14000
31,37067	13990
31,38133	13985
31,39200	13970
31,40267	13963
31,41333	13953
31,42400	13958
31,43467	13952
31,44533	13954
31,45600	13954
31,46667	13954
31,47733	13958
31,48800	13953
31,49867	13956
31,50933	13961
31,52000	13955
31,53067	13953
31,54133	13947
31,55200	13946
31,56267	13949
31,57333	13951
31,58400	13960
31,59467	13963
31,60533	13963
31,61600	13960
31,62667	13946
31,63733	13941
31,64800	13936
31,65867	13937
31,66933	13935
31,68000	13929
31,69067	13927
31,70133	13920
31,71200	13917
31,72267	13912
31,73333	13908
31,74400	13906
31,75467	13905
31,76533	13902
31,77600	13904
31,78667	13905
31,79733	13906
31,80800	13912
31,81867	13902
31,82933	13906
31,84000	13896
31,85067	13895
31,86133	13889
31,87200	13891
31,88267	13890
31,89333	13896
31,90400	13904
31,91467	13914
31,92533	13911
31,93600	13920
31,94667	13924
31,95733	13922
31,96800	13924
31,97867	13926
31,98933	13931
32,00000	13932
32,01067	13937
32,02133	13920
32,03200	13909
32,04267	13911
32,05333	13908
32,06400	13907
32,07467	13901
32,08533	13897
32,09600	13903
32,10667	13900
32,11733	13902
32,12800	13910
32,13867	13909
32,14933	13918
32,16000	13918
32,17067	13917
32,18133	13931
32,19200	13933
32,20267	13934
32,21333	13948
32,22400	13957
32,23467	13956
32,24533	13960
32,25600	13963
32,26667	13964
32,27733	13977
32,28800	13988
32,29867	14001
32,30933	14005
32,32000	14014
32,33067	14023
32,34133	14040
32,35200	14057
32,36267	14066
32,37333	14084
32,38400	14097
32,39467	14114
32,40533	14129
32,41600	14143
32,42667	14154
32,43733	14173
32,44800	14186
32,45867	14208
32,46933	14214
32,48000	14226
32,49067	14248
32,50133	14260
32,51200	14269
32,52267	14286
32,53333	14297
32,54400	14319
32,55467	14332
32,56533	14357
32,57600	14373
32,58667	14405
32,59733	14432
32,60800	14460
32,61867	14494
32,62933	14519
32,64000	14552
32,65067	14583
32,66133	14616
32,67200	14649
32,68267	14687
32,69333	14727
32,70400	14770
32,71467	14804
32,72533	14842
32,73600	14891
32,74667	14931
32,75733	14987
32,76800	15036
32,77867	15074
32,78933	15133
32,80000	15195
32,81067	15265
32,82133	15334
32,83200	15402
32,84267	15478
32,85333	15556
32,86400	15652
32,87467	15756
32,88533	15852
32,89600	15960
32,90667	16069
32,91733	16178
32,92800	16308
32,93867	16427
32,94933	16560
32,96000	16677
32,97067	16793
32,98133	16919
32,99200	17032
33,00267	17155
33,01333	17262
33,02400	17374
33,03467	17476
33,04533	17581
33,05600	17695
33,06667	17797
33,07733	17897
33,08800	18016
33,09867	18126
33,10933	18249
33,12000	18378
33,13067	18504
33,14133	18636
33,15200	18773
33,16267	18909
33,17333	19042
33,18400	19172
33,19467	19290
33,20533	19407
33,21600	19510
33,22667	19616
33,23733	19718
33,24800	19804
33,25867	19890
33,26933	19983
33,28000	20076
33,29067	20159
33,30133	20242
33,31200	20340
33,32267	20434
33,33333	20529
33,34400	20619
33,35467	20719
33,36533	20832
33,37600	20943
33,38667	21062
33,39733	21184
33,40800	21308
33,41867	21442
33,42933	21570
33,44000	21702
33,45067	21832
33,46133	21979
33,47200	22119
33,48267	22254
33,49333	22385
33,50400	22512
33,51467	22647
33,52533	22771
33,53600	22890
33,54667	23019
33,55733	23139
33,56800	23250
33,57867	23361
33,58933	23469
33,60000	23599
33,61067	23711
33,62133	23830
33,63200	23956
33,64267	24076
33,65333	24191
33,66400	24300
33,67467	24381
33,68533	24464
33,69600	24537
33,70667	24608
33,71733	24682
33,72800	24768
33,73867	24869
33,74933	24962
33,76000	25085
33,77067	25206
33,78133	25364
33,79200	25545
33,80267	25733
33,81333	25934
33,82400	26117
33,83467	26251
33,84533	26331
33,85600	26366
33,86667	26413
33,87733	26501
33,88800	26638
33,89867	26846
33,90933	27118
33,92000	27424
33,93067	27725
33,94133	28014
33,95200	28266
33,96267	28472
33,97333	28626
33,98400	28696
33,99467	28692
34,00533	28629
34,01600	28541
34,02667	28452
34,03733	28398
34,04800	28397
34,05867	28455
34,06933	28546
34,08000	28634
34,09067	28705
34,10133	28751
34,11200	28759
34,12267	28766
34,13333	28780
34,14400	28822
34,15467	28895
34,16533	28975
34,17600	29076
34,18667	29198
34,19733	29352
34,20800	29534
34,21867	29720
34,22933	29901
34,24000	30094
34,25067	30291
34,26133	30478
34,27200	30666
34,28267	30822
34,29333	30958
34,30400	31050
34,31467	31123
34,32533	31186
34,33600	31279
34,34667	31425
34,35733	31630
34,36800	31884
34,37867	32154
34,38933	32402
34,40000	32609
34,41067	32772
34,42133	32946
34,43200	33152
34,44267	33405
34,45333	33705
34,46400	34094
34,47467	34542
34,48533	35022
34,49600	35434
34,50667	35668
34,51733	35678
34,52800	35480
34,53867	35115
34,54933	34686
34,56000	34265
34,57067	33947
34,58133	33730
34,59200	33598
34,60267	33532
34,61333	33524
34,62400	33554
34,63467	33595
34,64533	33635
34,65600	33673
34,66667	33703
34,67733	33723
34,68800	33732
34,69867	33747
34,70933	33781
34,72000	33826
34,73067	33911
34,74133	34027
34,75200	34186
34,76267	34370
34,77333	34605
34,78400	34852
34,79467	35072
34,80533	35255
34,81600	35365
34,82667	35407
34,83733	35422
34,84800	35456
34,85867	35502
34,86933	35547
34,88000	35591
34,89067	35617
34,90133	35660
34,91200	35705
34,92267	35751
34,93333	35805
34,94400	35867
34,95467	35963
34,96533	36149
34,97600	36575
34,98667	37782
34,99733	40901
35,00800	47448
35,01867	58929
35,02933	75942
35,04000	97875
35,05067	121466
35,06133	140546
35,07200	148653
35,08267	144066
35,09333	130741
35,10400	114275
35,11467	98864
35,12533	86197
35,13600	76561
35,14667	69505
35,15733	64533
35,16800	61125
35,17867	58792
35,18933	57042
35,20000	55532
35,21067	54156
35,22133	52860
35,23200	51752
35,24267	50815
35,25333	50046
35,26400	49400
35,27467	48844
35,28533	48348
35,29600	47926
35,30667	47557
35,31733	47219
35,32800	46930
35,33867	46689
35,34933	46522
35,36000	46391
35,37067	46154
35,38133	45752
35,39200	45242
35,40267	44775
35,41333	44487
35,42400	44505
35,43467	45092
35,44533	46507
35,45600	48715
35,46667	51169
35,47733	53015
35,48800	53782
35,49867	53586
35,50933	52758
35,52000	51585
35,53067	50220
35,54133	48857
35,55200	47840
35,56267	47468
35,57333	47787
35,58400	48432
35,59467	48828
35,60533	48644
35,61600	47936
35,62667	47005
35,63733	46112
35,64800	45358
35,65867	44753
35,66933	44264
35,68000	43899
35,69067	43646
35,70133	43471
35,71200	43340
35,72267	43281
35,73333	43256
35,74400	43255
35,75467	43277
35,76533	43332
35,77600	43405
35,78667	43576
35,79733	43871
35,80800	44327
35,81867	44907
35,82933	45484
35,84000	45913
35,85067	46087
35,86133	46057
35,87200	45936
35,88267	45763
35,89333	45527
35,90400	45217
35,91467	44844
35,92533	44470
35,93600	44136
35,94667	43840
35,95733	43616
35,96800	43461
35,97867	43375
35,98933	43353
36,00000	43405
36,01067	43493
36,02133	43601
36,03200	43667
36,04267	43670
36,05333	43617
36,06400	43536
36,07467	43445
36,08533	43378
36,09600	43341
36,10667	43360
36,11733	43406
36,12800	43488
36,13867	43580
36,14933	43706
36,16000	43872
36,17067	44048
36,18133	44219
36,19200	44372
36,20267	44502
36,21333	44629
36,22400	44760
36,23467	44879
36,24533	44967
36,25600	44999
36,26667	44955
36,27733	44879
36,28800	44883
36,29867	45045
36,30933	45401
36,32000	45829
36,33067	46143
36,34133	46215
36,35200	46023
36,36267	45679
36,37333	45310
36,38400	44986
36,39467	44741
36,40533	44540
36,41600	44381
36,42667	44241
36,43733	44124
36,44800	44050
36,45867	43997
36,46933	43967
36,48000	43959
36,49067	43953
36,50133	43972
36,51200	43984
36,52267	44006
36,53333	44020
36,54400	44032
36,55467	44051
36,56533	44067
36,57600	44063
36,58667	44072
36,59733	44074
36,60800	44081
36,61867	44092
36,62933	44101
36,64000	44114
36,65067	44147
36,66133	44187
36,67200	44241
36,68267	44296
36,69333	44345
36,70400	44398
36,71467	44435
36,72533	44451
36,73600	44479
36,74667	44521
36,75733	44595
36,76800	44691
36,77867	44764
36,78933	44800
36,80000	44765
36,81067	44690
36,82133	44596
36,83200	44488
36,84267	44393
36,85333	44327
36,86400	44278
36,87467	44250
36,88533	44239
36,89600	44242
36,90667	44242
36,91733	44232
36,92800	44231
36,93867	44239
36,94933	44238
36,96000	44266
36,97067	44329
36,98133	44433
36,99200	44609
37,00267	44847
37,01333	45113
37,02400	45351
37,03467	45518
37,04533	45580
37,05600	45511
37,06667	45348
37,07733	45123
37,08800	44894
37,09867	44691
37,10933	44525
37,12000	44404
37,13067	44317
37,14133	44274
37,15200	44251
37,16267	44255
37,17333	44282
37,18400	44348
37,19467	44427
37,20533	44541
37,21600	44634
37,22667	44690
37,23733	44704
37,24800	44667
37,25867	44595
37,26933	44519
37,28000	44439
37,29067	44368
37,30133	44319
37,31200	44276
37,32267	44250
37,33333	44243
37,34400	44233
37,35467	44222
37,36533	44211
37,37600	44215
37,38667	44206
37,39733	44202
37,40800	44210
37,41867	44219
37,42933	44236
37,44000	44237
37,45067	44237
37,46133	44242
37,47200	44256
37,48267	44260
37,49333	44272
37,50400	44286
37,51467	44295
37,52533	44305
37,53600	44307
37,54667	44301
37,55733	44298
37,56800	44303
37,57867	44302
37,58933	44298
37,60000	44301
37,61067	44304
37,62133	44324
37,63200	44343
37,64267	44364
37,65333	44386
37,66400	44412
37,67467	44436
37,68533	44449
37,69600	44450
37,70667	44464
37,71733	44465
37,72800	44463
37,73867	44460
37,74933	44467
37,76000	44482
37,77067	44487
37,78133	44504
37,79200	44506
37,80267	44521
37,81333	44529
37,82400	44527
37,83467	44529
37,84533	44546
37,85600	44569
37,86667	44607
37,87733	44659
37,88800	44718
37,89867	44765
37,90933	44812
37,92000	44843
37,93067	44845
37,94133	44833
37,95200	44798
37,96267	44755
37,97333	44698
37,98400	44636
37,99467	44588
38,00533	44544
38,01600	44504
38,02667	44475
38,03733	44458
38,04800	44444
38,05867	44431
38,06933	44425
38,08000	44429
38,09067	44431
38,10133	44433
38,11200	44439
38,12267	44432
38,13333	44435
38,14400	44437
38,15467	44444
38,16533	44441
38,17600	44439
38,18667	44452
38,19733	44448
38,20800	44457
38,21867	44470
38,22933	44475
38,24000	44484
38,25067	44503
38,26133	44509
38,27200	44523
38,28267	44516
38,29333	44522
38,30400	44518
38,31467	44515
38,32533	44512
38,33600	44509
38,34667	44499
38,35733	44492
38,36800	44486
38,37867	44492
38,38933	44487
38,40000	44495
38,41067	44502
38,42133	44498
38,43200	44497
38,44267	44506
38,45333	44503
38,46400	44506
38,47467	44515
38,48533	44513
38,49600	44520
38,50667	44526
38,51733	44532
38,52800	44545
38,53867	44550
38,54933	44551
38,56000	44553
38,57067	44542
38,58133	44557
38,59200	44561
38,60267	44570
38,61333	44581
38,62400	44574
38,63467	44583
38,64533	44594
38,65600	44602
38,66667	44627
38,67733	44636
38,68800	44651
38,69867	44678
38,70933	44690
38,72000	44701
38,73067	44719
38,74133	44760
38,75200	44815
38,76267	44925
38,77333	45089
38,78400	45375
38,79467	45840
38,80533	46564
38,81600	47661
38,82667	49250
38,83733	51429
38,84800	54265
38,85867	57694
38,86933	61589
38,88000	65636
38,89067	69397
38,90133	72391
38,91200	74211
38,92267	74593
38,93333	73481
38,94400	71070
38,95467	67748
38,96533	63941
38,97600	60124
38,98667	56621
38,99733	53665
39,00800	51302
39,01867	49525
39,02933	48236
39,04000	47335
39,05067	46710
39,06133	46276
39,07200	45971
39,08267	45738
39,09333	45560
39,10400	45410
39,11467	45278
39,12533	45152
39,13600	45035
39,14667	44922
39,15733	44800
39,16800	44678
39,17867	44548
39,18933	44418
39,20000	44271
39,21067	44123
39,22133	43972
39,23200	43824
39,24267	43659
39,25333	43485
39,26400	43306
39,27467	43125
39,28533	42923
39,29600	42718
39,30667	42507
39,31733	42283
39,32800	42068
39,33867	41819
39,34933	41586
39,36000	41364
39,37067	41126
39,38133	40867
39,39200	40625
39,40267	40407
39,41333	40173
39,42400	39935
39,43467	39703
39,44533	39489
39,45600	39300
39,46667	39088
39,47733	38868
39,48800	38651
39,49867	38444
39,50933	38210
39,52000	37937
39,53067	37642
39,54133	37325
39,55200	36984
39,56267	36603
39,57333	36217
39,58400	35855
39,59467	35495
39,60533	35124
39,61600	34714
39,62667	34241
39,63733	33653
39,64800	32951
39,65867	32130
39,66933	31188
39,68000	30130
39,69067	29014
39,70133	27865
39,71200	26665
39,72267	25451
39,73333	24203
39,74400	22964
39,75467	21723
39,76533	20466
39,77600	19229
39,78667	18046
39,79733	16924
39,80800	15865
39,81867	14859
39,82933	13900
39,84000	13014
39,85067	12197
39,86133	11433
39,87200	10724
39,88267	10064
39,89333	9467
39,90400	8910
39,91467	8401
39,92533	7931
39,93600	7497
39,94667	7109
39,95733	6753
39,96800	6408
39,97867	6100
39,98933	5811
40,00000	5553
40,01067	5302
40,02133	5076
40,03200	4867
40,04267	4658
40,05333	4471
40,06400	4291
40,07467	4128
40,08533	3973
40,09600	3824
40,10667	3697
40,11733	3559
40,12800	3428
40,13867	3307
40,14933	3196
40,16000	3081
40,17067	2979
40,18133	2873
40,19200	2771
40,20267	2678
40,21333	2592
40,22400	2517
40,23467	2433
40,24533	2359
40,25600	2288
40,26667	2216
40,27733	2157
40,28800	2091
40,29867	2018
40,30933	1963
40,32000	1903
40,33067	1848
40,34133	1794
40,35200	1746
40,36267	1689
40,37333	1642
40,38400	1600
40,39467	1550
40,40533	1507
40,41600	1466
40,42667	1425
40,43733	1384
40,44800	1348
40,45867	1314
40,46933	1276
40,48000	1239
40,49067	1208
40,50133	1174
40,51200	1142
40,52267	1110
40,53333	1077
40,54400	1052
40,55467	1012
40,56533	983
40,57600	960
40,58667	935
40,59733	898
40,60800	874
40,61867	859
40,62933	823
40,64000	801
40,65067	783
40,66133	756
40,67200	722
40,68267	697
40,69333	668
40,70400	647
40,71467	617
40,72533	597
40,73600	577
40,74667	547
40,75733	516
40,76800	493
40,77867	475
40,78933	455
40,80000	435
40,81067	411
40,82133	396
40,83200	377
40,84267	349
40,85333	322
40,86400	303
40,87467	288
40,88533	264
40,89600	248
40,90667	236
40,91733	214
40,92800	195
40,93867	168
40,94933	146
40,96000	139
40,97067	118
40,98133	111
40,99200	105
41,00267	87
41,01333	69
41,02400	56
41,03467	46
41,04533	36
41,05600	27
41,06667	23
41,07733	12
41,08800	-5
41,09867	-16
41,10933	-27
41,12000	-33
41,13067	-40
41,14133	-55
41,15200	-73
41,16267	-80
41,17333	-87
41,18400	-92
41,19467	-95
41,20533	-114
41,21600	-118
41,22667	-122
41,23733	-132
41,24800	-138
41,25867	-143
41,26933	-156
41,28000	-160
41,29067	-164
41,30133	-166
41,31200	-172
41,32267	-185
41,33333	-191
41,34400	-188
41,35467	-186
41,36533	-191
41,37600	-194
41,38667	-201
41,39733	-206
41,40800	-203
41,41867	-198
41,42933	-200
41,44000	-200
41,45067	-205
41,46133	-204
41,47200	-203
41,48267	-201
41,49333	-196
41,50400	-193
41,51467	-190
41,52533	-191
41,53600	-184
41,54667	-183
41,55733	-178
41,56800	-176
41,57867	-179
41,58933	-178
41,60000	-167
41,61067	-156
41,62133	-147
41,63200	-149
41,64267	-150
41,65333	-133
41,66400	-128
41,67467	-114
41,68533	-109
41,69600	-104
41,70667	-95
41,71733	-90
41,72800	-91
41,73867	-81
41,74933	-76
41,76000	-68
41,77067	-63
41,78133	-67
41,79200	-61
41,80267	-45
41,81333	-46
41,82400	-37
41,83467	-31
41,84533	-20
41,85600	-10
41,86667	-9
41,87733	-7
41,88800	7
41,89867	19
41,90933	17
41,92000	18
41,93067	31
41,94133	31
41,95200	36
41,96267	48
41,97333	52
41,98400	56
41,99467	65
42,00533	68
42,01600	62
42,02667	69
42,03733	76
42,04800	78
42,05867	87
42,06933	90
42,08000	91
42,09067	98
42,10133	106
42,11200	111
42,12267	112
42,13333	113
42,14400	125
42,15467	122
42,16533	129
42,17600	133
42,18667	133
42,19733	130
42,20800	129
42,21867	128
42,22933	139
42,24000	135
42,25067	139
42,26133	130
42,27200	147
42,28267	150
42,29333	145
42,30400	140
42,31467	145
42,32533	148
42,33600	140
42,34667	145
42,35733	152
42,36800	149
42,37867	144
42,38933	152
42,40000	149
42,41067	152
42,42133	155
42,43200	158
42,44267	168
42,45333	159
42,46400	159
42,47467	162
42,48533	155
42,49600	163
42,50667	165
42,51733	157
42,52800	158
42,53867	153
42,54933	155
42,56000	160
42,57067	156
42,58133	158
42,59200	158
42,60267	163
42,61333	161
42,62400	167
42,63467	163
42,64533	160
42,65600	157
42,66667	157
42,67733	162
42,68800	160
42,69867	161
42,70933	162
42,72000	153
42,73067	151
42,74133	162
42,75200	156
42,76267	160
42,77333	160
42,78400	158
42,79467	156
42,80533	154
42,81600	157
42,82667	156
42,83733	159
42,84800	158
42,85867	152
42,86933	157
42,88000	160
42,89067	158
42,90133	152
42,91200	148
42,92267	148
42,93333	152
42,94400	146
42,95467	147
42,96533	146
42,97600	152
42,98667	149
42,99733	145
43,00800	146
43,01867	151
43,02933	144
43,04000	138
43,05067	147
43,06133	142
43,07200	149
43,08267	142
43,09333	145
43,10400	136
43,11467	129
43,12533	137
43,13600	142
43,14667	142
43,15733	140
43,16800	140
43,17867	134
43,18933	131
43,20000	135
43,21067	139
43,22133	139
43,23200	144
43,24267	148
43,25333	150
43,26400	144
43,27467	145
43,28533	146
43,29600	150
43,30667	143
43,31733	136
43,32800	146
43,33867	138
43,34933	139
43,36000	144
43,37067	142
43,38133	134
43,39200	145
43,40267	141
43,41333	147
43,42400	144
43,43467	144
43,44533	138
43,45600	143
43,46667	144
43,47733	142
43,48800	143
43,49867	141
43,50933	146
43,52000	147
43,53067	139
43,54133	148
43,55200	150
43,56267	150
43,57333	150
43,58400	147
43,59467	142
43,60533	144
43,61600	143
43,62667	141
43,63733	142
43,64800	134
43,65867	142
43,66933	141
43,68000	138
43,69067	134
43,70133	139
43,71200	142
43,72267	139
43,73333	136
43,74400	137
43,75467	140
43,76533	143
43,77600	142
43,78667	140
43,79733	135
43,80800	137
43,81867	140
43,82933	130
43,84000	134
43,85067	143
43,86133	138
43,87200	143
43,88267	138
43,89333	136
43,90400	132
43,91467	136
43,92533	143
43,93600	141
43,94667	144
43,95733	136
43,96800	141
43,97867	139
43,98933	147
44,00000	146
44,01067	143
44,02133	143
44,03200	142
44,04267	139
44,05333	138
44,06400	132
44,07467	136
44,08533	137
44,09600	136
44,10667	136
44,11733	144
44,12800	140
44,13867	138
44,14933	140
44,16000	137
44,17067	133
44,18133	141
44,19200	133
44,20267	133
44,21333	139
44,22400	140
44,23467	142
44,24533	144
44,25600	154
44,26667	141
44,27733	137
44,28800	137
44,29867	141
44,30933	137
44,32000	130
44,33067	125
44,34133	133
44,35200	129
44,36267	138
44,37333	141
44,38400	141
44,39467	141
44,40533	131
44,41600	130
44,42667	140
44,43733	131
44,44800	135
44,45867	137
44,46933	131
44,48000	130
44,49067	131
44,50133	128
44,51200	128
44,52267	128
44,53333	130
44,54400	129
44,55467	131
44,56533	123
44,57600	126
44,58667	121
44,59733	126
44,60800	126
44,61867	135
44,62933	133
44,64000	132
44,65067	122
44,66133	125
44,67200	120
44,68267	119
44,69333	130
44,70400	134
44,71467	124
44,72533	128
44,73600	126
44,74667	135
44,75733	125
44,76800	129
44,77867	126
44,78933	124
44,80000	120
44,81067	123
44,82133	133
44,83200	122
44,84267	128
44,85333	125
44,86400	124
44,87467	127
44,88533	123
44,89600	126
44,90667	126
44,91733	123
44,92800	125
44,93867	117
44,94933	118
44,96000	118
44,97067	121
44,98133	130
44,99200	130
45,00267	129
45,01333	126
45,02400	123
45,03467	128
45,04533	124
45,05600	127
45,06667	128
45,07733	124
45,08800	121
45,09867	122
45,10933	116
45,12000	119
45,13067	123
45,14133	129
45,15200	127
45,16267	121
45,17333	123
45,18400	124
45,19467	124
45,20533	129
45,21600	130
45,22667	126
45,23733	127
45,24800	123
45,25867	119
45,26933	120
45,28000	123
45,29067	125
45,30133	129
45,31200	124
45,32267	124
45,33333	123
45,34400	128
45,35467	124
45,36533	123
45,37600	129
45,38667	131
45,39733	121
45,40800	123
45,41867	124
45,42933	122
45,44000	124
45,45067	123
45,46133	124
45,47200	121
45,48267	117
45,49333	126
45,50400	123
45,51467	125
45,52533	126
45,53600	123
45,54667	124
45,55733	127
45,56800	129
45,57867	130
45,58933	131
45,60000	126
45,61067	127
45,62133	124
45,63200	122
45,64267	122
45,65333	126
45,66400	124
45,67467	128
45,68533	130
45,69600	130
45,70667	136
45,71733	136
45,72800	134
45,73867	135
45,74933	138
45,76000	140
45,77067	138
45,78133	136
45,79200	139
45,80267	137
45,81333	142
45,82400	139
45,83467	137
45,84533	143
45,85600	137
45,86667	136
45,87733	136
45,88800	128
45,89867	132
45,90933	135
45,92000	130
45,93067	132
45,94133	127
45,95200	130
45,96267	135
45,97333	133
45,98400	133
45,99467	125
46,00533	130
46,01600	129
46,02667	127
46,03733	127
46,04800	133
46,05867	136
46,06933	126
46,08000	129
46,09067	134
46,10133	129
46,11200	143
46,12267	144
46,13333	134
46,14400	131
46,15467	132
46,16533	128
46,17600	133
46,18667	136
46,19733	134
46,20800	133
46,21867	125
46,22933	128
46,24000	133
46,25067	132
46,26133	140
46,27200	138
46,28267	131
46,29333	131
46,30400	127
46,31467	124
46,32533	125
46,33600	118
46,34667	126
46,35733	129
46,36800	122
46,37867	123
46,38933	124
46,40000	130
46,41067	127
46,42133	121
46,43200	119
46,44267	125
46,45333	128
46,46400	127
46,47467	122
46,48533	120
46,49600	116
46,50667	121
46,51733	125
46,52800	123
46,53867	123
46,54933	122
46,56000	129
46,57067	131
46,58133	126
46,59200	119
46,60267	122
46,61333	124
46,62400	127
46,63467	120
46,64533	123
46,65600	119
46,66667	120
46,67733	119
46,68800	120
46,69867	117
46,70933	126
46,72000	125
46,73067	123
46,74133	120
46,75200	117
46,76267	118
46,77333	113
46,78400	118
46,79467	116
46,80533	121
46,81600	121
46,82667	122
46,83733	125
46,84800	120
46,85867	124
46,86933	114
46,88000	116
46,89067	120
46,90133	117
46,91200	118
46,92267	122
46,93333	122
46,94400	118
46,95467	113
46,96533	116
46,97600	117
46,98667	119
46,99733	124
47,00800	125
47,01867	123
47,02933	118
47,04000	114
47,05067	121
47,06133	127
47,07200	118
47,08267	114
47,09333	117
47,10400	113
47,11467	111
47,12533	117
47,13600	107
47,14667	108
47,15733	118
47,16800	122
47,17867	121
47,18933	121
47,20000	121
47,21067	114
47,22133	113
47,23200	114
47,24267	118
47,25333	114
47,26400	109
47,27467	114
47,28533	124
47,29600	116
47,30667	119
47,31733	116
47,32800	119
47,33867	112
47,34933	113
47,36000	129
47,37067	121
47,38133	121
47,39200	115
47,40267	113
47,41333	122
47,42400	115
47,43467	112
47,44533	114
47,45600	111
47,46667	112
47,47733	116
47,48800	114
47,49867	113
47,50933	110
47,52000	112
47,53067	113
47,54133	112
47,55200	115
47,56267	114
47,57333	120
47,58400	117
47,59467	112
47,60533	115
47,61600	113
47,62667	111
47,63733	110
47,64800	114
47,65867	113
47,66933	112
47,68000	109
47,69067	115
47,70133	121
47,71200	125
47,72267	121
47,73333	120
47,74400	113
47,75467	119
47,76533	122
47,77600	117
47,78667	112
47,79733	118
47,80800	115
47,81867	116
47,82933	112
47,84000	108
47,85067	101
47,86133	104
47,87200	109
47,88267	107
47,89333	108
47,90400	108
47,91467	107
47,92533	108
47,93600	114
47,94667	110
47,95733	115
47,96800	112
47,97867	113
47,98933	111
48,00000	110
48,01067	110
48,02133	109
48,03200	107
48,04267	108
48,05333	107
48,06400	112
48,07467	116
48,08533	109
48,09600	107
48,10667	110
48,11733	109
48,12800	108
48,13867	107
48,14933	102
48,16000	103
48,17067	105
48,18133	105
48,19200	119
48,20267	113
48,21333	111
48,22400	101
48,23467	104
48,24533	104
48,25600	108
48,26667	111
48,27733	115
48,28800	108
48,29867	103
48,30933	101
48,32000	100
48,33067	112
48,34133	108
48,35200	109
48,36267	96
48,37333	91
48,38400	99
48,39467	94
48,40533	98
48,41600	99
48,42667	97
48,43733	100
48,44800	98
48,45867	93
48,46933	94
48,48000	94
48,49067	85
48,50133	90
48,51200	92
48,52267	88
48,53333	97
48,54400	97
48,55467	91
48,56533	88
48,57600	87
48,58667	89
48,59733	93
48,60800	80
48,61867	81
48,62933	84
48,64000	80
48,65067	89
48,66133	79
48,67200	75
48,68267	78
48,69333	85
48,70400	83
48,71467	83
48,72533	84
48,73600	75
48,74667	72
48,75733	84
48,76800	78
48,77867	83
48,78933	78
48,80000	85
48,81067	81
48,82133	81
48,83200	84
48,84267	81
48,85333	79
48,86400	85
48,87467	85
48,88533	81
48,89600	79
48,90667	76
48,91733	74
48,92800	78
48,93867	87
48,94933	83
48,96000	78
48,97067	76
48,98133	75
48,99200	78
49,00267	86
49,01333	80
49,02400	78
49,03467	73
49,04533	74
49,05600	74
49,06667	73
49,07733	77
49,08800	72
49,09867	80
49,10933	80
49,12000	80
49,13067	71
49,14133	76
49,15200	77
49,16267	70
49,17333	68
49,18400	68
49,19467	73
49,20533	71
49,21600	77
49,22667	72
49,23733	72
49,24800	75
49,25867	63
49,26933	67
49,28000	69
49,29067	70
49,30133	70
49,31200	73
49,32267	67
49,33333	68
49,34400	60
49,35467	63
49,36533	63
49,37600	68
49,38667	63
49,39733	59
49,40800	66
49,41867	69
49,42933	63
49,44000	67
49,45067	59
49,46133	58
49,47200	61
49,48267	67
49,49333	65
49,50400	59
49,51467	67
49,52533	57
49,53600	56
49,54667	55
49,55733	54
49,56800	60
49,57867	57
49,58933	50
49,60000	64
49,61067	65
49,62133	56
49,63200	60
49,64267	61
49,65333	59
49,66400	55
49,67467	58
49,68533	57
49,69600	54
49,70667	56
49,71733	56
49,72800	51
49,73867	59
49,74933	52
49,76000	53
49,77067	47
49,78133	52
49,79200	50
49,80267	53
49,81333	49
49,82400	46
49,83467	52
49,84533	51
49,85600	43
49,86667	43
49,87733	54
49,88800	46
49,89867	42
49,90933	47
49,92000	45
49,93067	46
49,94133	40
49,95200	46
49,96267	44
49,97333	52
49,98400	47
49,99467	43
50,00533	42


