[Header]
Application Name	LabSolutions
Version	5.73
Data File Name	C:\Users\Public\DADOS\Ricardo borges\RMBorges\26.02.25\SCIFFEE 3.lcd
Output Date	27/02/2025
Output Time	00:32:32

[File Information]
Type	Data File
Generated	26/02/2025 23:42:04
Generated by	System Administrator
Modified	27/02/2025 00:32:31
Modified by	System Administrator

[Sample Information]
Operator Name	System Administrator
Acquired	26/02/2025 23:42:29
Sample Type	0:Unknown
Level	0
Sample Name	SCIFFEE 3
Sample ID	SCIFFEE 3
ISTD Amount1	1
ISTD Amount2	1
ISTD Amount3	1
ISTD Amount4	1
ISTD Amount5	1
ISTD Amount6	1
ISTD Amount7	1
ISTD Amount8	1
ISTD Amount9	1
ISTD Amount10	1
ISTD Amount11	1
ISTD Amount12	1
ISTD Amount13	1
ISTD Amount14	1
ISTD Amount15	1
ISTD Amount16	1
ISTD Amount17	1
ISTD Amount18	1
ISTD Amount19	1
ISTD Amount20	1
ISTD Amount21	1
ISTD Amount22	1
ISTD Amount23	1
ISTD Amount24	1
ISTD Amount25	1
ISTD Amount26	1
ISTD Amount27	1
ISTD Amount28	1
ISTD Amount29	1
ISTD Amount30	1
ISTD Amount31	1
ISTD Amount32	1
Sample Amount	1
Dilution Factor	1
Vial#	19
Injection Volume	10

[Original Files]
Data File	C:\Users\Public\DADOS\Ricardo borges\RMBorges\26.02.25\SCIFFEE 3.lcd
Method File	C:\Users\Public\MÉTODOS\MÉTODOS HPLC AUTOMÁTICO\RICARDO BORGES\RMBorges\sciffee\experimental 1 - pool.lcm
Batch File	C:\Users\Public\DADOS\Ricardo borges\RMBorges\26.02.25\BATCH_RM_MIX POOL_26.02.2025.lcb
Report Format File	C:\LabSolutions\System\Default.lsr

[File Description]


[Configuration]
Instrument Name	HPLC analítico (automático)
Instrument #	1
Line #	1
# of Detectors	1
Detector ID	PDA
Detector Name	PDA
# of Channels	1

[Peak Table(PDA-Ch1)]
# of Peaks	87
Peak#	R.Time	I.Time	F.Time	Area	Height	A/H	Conc.	Mark	ID#	Name	k'	Plate #	Plate Ht.	Tailing	Resolution	Sep.Factor	Area Ratio	Height Ratio	Conc. %	Norm Conc.
1	1,673	1,259	1,813	2580065	345789	7,461	0,000	   			0,000	1036	144,796	0,000	0,000	0,000	0	0	0,000	0,000
2	1,866	1,813	2,016	436663	64891	6,729	0,000	 V 			0,115	1215	123,436	0,000	0,915	0,000	0	0	0,000	0,000
3	2,176	2,016	2,432	538059	47227	11,393	0,000	 V 			0,301	716	209,496	0,000	1,150	2,605	0	0	0,000	0,000
4	2,641	2,432	2,805	368936	43083	8,563	0,000	 V 			0,579	2480	60,475	0,000	1,730	1,924	0	0	0,000	0,000
5	2,908	2,805	3,104	107653	7646	14,080	0,000	 V 			0,738	263	570,006	0,000	0,574	1,275	0	0	0,000	0,000
6	3,295	3,104	3,477	119051	7136	16,683	0,000	 V 			0,970	538	278,882	0,000	0,603	1,314	0	0	0,000	0,000
7	3,524	3,477	3,637	37587	5140	7,313	0,000	 V 			1,107	879	170,656	0,000	0,439	1,141	0	0	0,000	0,000
8	3,809	3,637	4,043	84887	4914	17,274	0,000	 V 			1,277	834	179,836	0,000	0,568	1,154	0	0	0,000	0,000
9	4,339	4,043	4,768	148052	5485	26,991	0,000	 V 			1,594	440	340,557	0,000	0,783	1,248	0	0	0,000	0,000
10	5,128	4,768	5,344	71114	2489	28,575	0,000	 V 			2,065	13	11445,983	0,000	0,243	1,296	0	0	0,000	0,000
11	5,515	5,344	5,611	28828	1898	15,186	0,000	 V 			2,297	112	1336,438	0,000	0,100	1,112	0	0	0,000	0,000
12	5,813	5,611	5,867	31249	2295	13,617	0,000	 V 			2,475	57	2632,355	0,000	0,115	1,078	0	0	0,000	0,000
13	6,064	5,867	6,251	180602	13125	13,760	0,000	 V 			2,625	3744	40,065	0,000	0,144	1,060	0	0	0,000	0,000
14	6,442	6,251	6,709	306444	22702	13,499	0,000	 V 			2,851	5330	28,144	0,000	1,010	1,086	0	0	0,000	0,000
15	6,910	6,709	7,029	59851	3264	18,339	0,000	 V 			3,130	111	1345,398	0,000	0,315	1,098	0	0	0,000	0,000
16	7,275	7,029	7,488	127877	5561	22,995	0,000	 V 			3,349	340	440,670	0,000	0,174	1,070	0	0	0,000	0,000
17	7,656	7,488	7,936	141243	6269	22,529	0,000	 V 			3,576	603	248,855	0,000	0,270	1,068	0	0	0,000	0,000
18	8,247	7,936	8,768	450106	14964	30,079	0,000	 V 			3,930	2071	72,442	0,000	0,600	1,099	0	0	0,000	0,000
19	9,045	8,768	9,451	403874	18782	21,503	0,000	 V 			4,407	5986	25,060	0,000	1,337	1,121	0	0	0,000	0,000
20	9,698	9,451	9,845	228509	13152	17,374	0,000	 V 			4,797	3620	41,441	0,000	1,175	1,089	0	0	0,000	0,000
21	9,877	9,845	10,197	165860	9529	17,406	0,000	 V 			4,904	56	2687,925	0,000	0,060	1,022	0	0	0,000	0,000
22	10,516	10,197	10,784	724766	47491	15,261	0,000	 V 			5,286	12741	11,773	0,000	0,225	1,078	0	0	0,000	0,000
23	10,848	10,784	10,933	73228	8409	8,709	0,000	 V 			5,485	140	1068,542	0,000	0,165	1,038	0	0	0,000	0,000
24	11,189	10,933	13,024	4997759	362099	13,802	0,000	SV 			5,688	22013	6,814	1,191	0,172	1,037	0	0	0,000	0,000
25	11,856	11,744	11,936	2066	284	7,281	0,000	T  			6,087	66222	2,265	0,859	2,745	1,070	0	0	0,000	0,000
26	12,235	11,968	12,405	78520	6805	11,539	0,000	T  			6,314	24603	6,097	0,000	1,530	1,037	0	0	0,000	0,000
27	12,651	12,405	12,704	49557	3344	14,821	0,000	TV 			6,562	1305	114,903	0,000	0,485	1,039	0	0	0,000	0,000
28	12,830	12,704	13,024	67129	6592	10,183	0,000	TV 			6,670	25212	5,950	0,000	0,208	1,016	0	0	0,000	0,000
29	13,291	13,024	14,912	5251767	246811	21,278	0,000	SV 			6,945	15810	9,488	0,000	1,235	1,041	0	0	0,000	0,000
30	14,305	14,155	14,464	34128	3898	8,755	0,000	T  			7,551	52235	2,872	1,020	3,013	1,087	0	0	0,000	0,000
31	14,622	14,464	14,912	43848	4173	10,507	0,000	T  			7,741	45736	3,280	1,452	1,208	1,025	0	0	0,000	0,000
32	15,192	14,912	16,917	5482448	348383	15,737	0,000	SV 			8,082	40415	3,711	2,093	1,982	1,044	0	0	0,000	0,000
33	15,678	15,573	15,936	39575	4803	8,240	0,000	T  			8,372	71612	2,095	1,597	1,811	1,036	0	0	0,000	0,000
34	16,276	16,000	16,597	45655	2707	16,867	0,000	T  			8,729	18682	8,029	1,088	1,682	1,043	0	0	0,000	0,000
35	16,778	16,597	16,917	43817	4934	8,880	0,000	T  			9,029	70634	2,124	0,934	1,378	1,034	0	0	0,000	0,000
36	17,164	16,917	17,451	1981199	145062	13,658	0,000	 V 			9,261	38331	3,913	0,000	1,282	1,026	0	0	0,000	0,000
37	17,602	17,451	17,696	316399	25162	12,575	0,000	 V 			9,522	7805	19,219	0,000	0,762	1,028	0	0	0,000	0,000
38	17,881	17,696	18,176	1100318	76224	14,435	0,000	 V 			9,689	37987	3,949	0,000	0,480	1,018	0	0	0,000	0,000
39	18,260	18,176	18,624	357341	14304	24,982	0,000	 V 			9,915	154	972,595	0,000	0,121	1,023	0	0	0,000	0,000
40	18,850	18,624	18,997	363808	19730	18,440	0,000	 V 			10,268	6880	21,801	0,000	0,174	1,036	0	0	0,000	0,000
41	19,213	18,997	19,509	645280	32186	20,048	0,000	 V 			10,485	19524	7,683	0,000	0,498	1,021	0	0	0,000	0,000
42	19,698	19,509	19,808	345371	24164	14,293	0,000	 V 			10,775	13514	11,099	0,000	0,791	1,028	0	0	0,000	0,000
43	19,953	19,808	20,203	495162	30533	16,217	0,000	 V 			10,927	23060	6,505	0,000	0,422	1,014	0	0	0,000	0,000
44	20,403	20,203	20,736	575280	32365	17,775	0,000	 V 			11,197	39006	3,846	0,000	0,960	1,025	0	0	0,000	0,000
45	20,861	20,736	20,928	129861	11328	11,464	0,000	 V 			11,470	42	3539,452	0,000	0,069	1,024	0	0	0,000	0,000
46	21,095	20,928	21,248	229577	12983	17,683	0,000	 V 			11,610	3114	48,169	0,000	0,033	1,012	0	0	0,000	0,000
47	21,620	21,248	22,016	1452074	90407	16,062	0,000	 V 			11,924	59142	2,536	0,000	0,562	1,027	0	0	0,000	0,000
48	22,101	22,016	22,251	145148	10574	13,726	0,000	 V 			12,211	84	1793,710	0,000	0,096	1,024	0	0	0,000	0,000
49	22,484	22,251	22,592	211251	10994	19,215	0,000	 V 			12,440	84	1779,870	0,000	0,039	1,019	0	0	0,000	0,000
50	22,792	22,592	23,243	617315	33570	18,389	0,000	 V 			12,624	57991	2,587	0,000	0,061	1,015	0	0	0,000	0,000
51	23,433	23,243	23,648	229383	10464	21,921	0,000	 V 			13,008	3071	48,843	0,000	0,620	1,030	0	0	0,000	0,000
52	23,778	23,648	23,936	149903	9547	15,702	0,000	 V 			13,214	5947	25,221	0,000	0,236	1,016	0	0	0,000	0,000
53	24,150	23,936	24,309	244566	13508	18,105	0,000	 V 			13,437	16223	9,246	0,000	0,374	1,017	0	0	0,000	0,000
54	24,377	24,309	24,555	130268	9998	13,029	0,000	 V 			13,572	1916	78,277	0,000	0,151	1,010	0	0	0,000	0,000
55	24,678	24,555	24,853	129303	7890	16,387	0,000	 V 			13,752	4109	36,506	0,000	0,160	1,013	0	0	0,000	0,000
56	24,931	24,853	25,077	83319	6372	13,076	0,000	 V 			13,903	213	705,346	0,000	0,060	1,011	0	0	0,000	0,000
57	25,237	25,077	25,333	94468	6305	14,983	0,000	 V 			14,086	752	199,439	0,000	0,058	1,013	0	0	0,000	0,000
58	25,541	25,333	25,632	133408	8560	15,585	0,000	 V 			14,268	7276	20,617	0,000	0,125	1,013	0	0	0,000	0,000
59	25,928	25,632	26,261	394498	17478	22,572	0,000	 V 			14,499	19951	7,518	0,000	0,401	1,016	0	0	0,000	0,000
60	26,398	26,261	26,560	104923	6394	16,410	0,000	 V 			14,780	5177	28,976	0,000	0,426	1,019	0	0	0,000	0,000
61	26,710	26,560	26,816	85396	5772	14,796	0,000	 V 			14,966	1296	115,752	0,000	0,141	1,013	0	0	0,000	0,000
62	26,943	26,816	27,072	88231	6013	14,673	0,000	 V 			15,106	2554	58,728	0,000	0,092	1,009	0	0	0,000	0,000
63	27,228	27,072	27,605	153599	5542	27,715	0,000	 V 			15,276	504	297,796	0,000	0,082	1,011	0	0	0,000	0,000
64	27,678	27,605	27,840	52326	3832	13,655	0,000	 V 			15,545	78	1932,695	0,000	0,052	1,018	0	0	0,000	0,000
65	28,232	27,840	28,491	137499	3826	35,942	0,000	 V 			15,876	2924	51,301	0,000	0,076	1,021	0	0	0,000	0,000
66	28,648	28,491	29,120	97675	3197	30,556	0,000	 V 			16,125	2206	67,983	0,000	0,184	1,016	0	0	0,000	0,000
67	29,357	29,120	29,568	56463	2544	22,193	0,000	 V 			16,549	13369	11,220	0,000	0,410	1,026	0	0	0,000	0,000
68	29,713	29,568	29,813	25206	1821	13,840	0,000	 V 			16,762	6409	23,403	0,000	0,285	1,013	0	0	0,000	0,000
69	29,899	29,813	30,101	24396	1617	15,087	0,000	 V 			16,873	271	552,859	0,000	0,043	1,007	0	0	0,000	0,000
70	30,187	30,101	30,389	16814	1093	15,377	0,000	 V 			17,045	65	2299,893	0,000	0,026	1,010	0	0	0,000	0,000
71	30,717	30,389	30,880	31479	1494	21,076	0,000	 V 			17,362	36335	4,128	0,000	0,068	1,019	0	0	0,000	0,000
72	31,077	30,880	31,392	34834	2240	15,550	0,000	 V 			17,577	100824	1,488	0,000	0,694	1,012	0	0	0,000	0,000
73	31,509	31,392	31,691	3478	254	13,680	0,000	 V 			17,836	0	0,000	0,000	0,000	1,015	0	0	0,000	0,000
74	34,057	32,747	34,112	346651	7062	49,084	0,000	   			19,359	9295	16,138	0,000	0,000	1,085	0	0	0,000	0,000
75	34,232	34,112	34,293	81767	9875	8,280	0,000	 V 			19,463	42172	3,557	0,000	0,168	1,005	0	0	0,000	0,000
76	34,340	34,293	34,411	52014	9035	5,757	0,000	 V 			19,528	187800	0,799	0,000	0,219	1,003	0	0	0,000	0,000
77	34,528	34,411	34,571	58758	6179	9,509	0,000	 V 			19,640	14507	10,340	0,000	0,257	1,006	0	0	0,000	0,000
78	35,072	34,571	35,413	1079526	121445	8,889	0,000	 V 			19,965	695520	0,216	0,000	0,828	1,017	0	0	0,000	0,000
79	35,490	35,413	35,563	148598	21036	7,064	0,000	 V 			20,215	203190	0,738	0,000	1,731	1,013	0	0	0,000	0,000
80	35,596	35,563	35,733	118032	15215	7,758	0,000	 V 			20,279	48229	3,110	0,000	0,220	1,003	0	0	0,000	0,000
81	35,853	35,733	35,989	140687	10899	12,908	0,000	 V 			20,432	47072	3,187	0,000	0,392	1,008	0	0	0,000	0,000
82	36,041	35,989	36,096	46151	7381	6,252	0,000	 V 			20,544	2121	70,734	0,000	0,099	1,005	0	0	0,000	0,000
83	36,339	36,096	36,523	175712	8495	20,684	0,000	 V 			20,723	13719	10,934	0,000	0,137	1,009	0	0	0,000	0,000
84	36,789	36,523	36,907	95559	4185	22,833	0,000	 V 			20,992	133	1124,873	0,000	0,064	1,013	0	0	0,000	0,000
85	37,046	36,907	37,152	40762	3505	11,630	0,000	 V 			21,145	94141	1,593	0,000	0,039	1,007	0	0	0,000	0,000
86	37,234	37,152	37,429	16177	1646	9,831	0,000	 V 			21,258	4297	34,907	0,000	0,136	1,005	0	0	0,000	0,000
87	38,919	38,667	39,968	1038214	37199	27,910	0,000	   			22,265	349491	0,429	2,952	1,329	1,047	0	0	0,000	0,000

[Compound Results(PDA)]
# of IDs	0

[PDA Multi Chromatogram(Ch1)]
# of Points	      4689
Interval(msec)	640
Start Time(min)	0
End Time(min)	50,0053
Intensity Units	mAU
Intensity Multiplier	1
Type	MultiChrom
Wavelength(nm)	254
Bandwidth(nm)	4
R.Time (min)	Intensity
0,00000	0
0,01067	0
0,02133	0
0,03200	0
0,04267	0
0,05333	0
0,06400	0
0,07467	0
0,08533	0
0,09600	0
0,10667	0
0,11733	3
0,12800	-4
0,13867	4
0,14933	8
0,16000	5
0,17067	4
0,18133	1
0,19200	1
0,20267	2
0,21333	-1
0,22400	-3
0,23467	7
0,24533	3
0,25600	0
0,26667	-3
0,27733	-1
0,28800	-1
0,29867	-3
0,30933	-2
0,32000	-2
0,33067	4
0,34133	-5
0,35200	-9
0,36267	-4
0,37333	5
0,38400	-5
0,39467	-1
0,40533	-1
0,41600	1
0,42667	-7
0,43733	-12
0,44800	-13
0,45867	-3
0,46933	-11
0,48000	-10
0,49067	-1
0,50133	-5
0,51200	-10
0,52267	-10
0,53333	-6
0,54400	-9
0,55467	-10
0,56533	-13
0,57600	-7
0,58667	-9
0,59733	-10
0,60800	-20
0,61867	-12
0,62933	-8
0,64000	-4
0,65067	1
0,66133	-6
0,67200	-11
0,68267	-9
0,69333	-11
0,70400	-8
0,71467	0
0,72533	-1
0,73600	-8
0,74667	-7
0,75733	-1
0,76800	-5
0,77867	-6
0,78933	-5
0,80000	3
0,81067	-1
0,82133	-7
0,83200	-13
0,84267	-11
0,85333	-6
0,86400	3
0,87467	-1
0,88533	-5
0,89600	-5
0,90667	-3
0,91733	-4
0,92800	-2
0,93867	-1
0,94933	5
0,96000	1
0,97067	3
0,98133	-2
0,99200	-1
1,00267	8
1,01333	-4
1,02400	-6
1,03467	-2
1,04533	9
1,05600	10
1,06667	5
1,07733	13
1,08800	10
1,09867	10
1,10933	6
1,12000	6
1,13067	7
1,14133	11
1,15200	17
1,16267	23
1,17333	23
1,18400	31
1,19467	39
1,20533	38
1,21600	37
1,22667	38
1,23733	27
1,24800	30
1,25867	35
1,26933	43
1,28000	47
1,29067	57
1,30133	63
1,31200	76
1,32267	97
1,33333	139
1,34400	222
1,35467	308
1,36533	389
1,37600	466
1,38667	543
1,39733	654
1,40800	813
1,41867	1054
1,42933	1376
1,44000	1767
1,45067	2224
1,46133	2855
1,47200	3759
1,48267	4888
1,49333	6019
1,50400	7004
1,51467	7823
1,52533	8531
1,53600	9218
1,54667	9933
1,55733	10686
1,56800	11590
1,57867	14000
1,58933	23106
1,60000	48002
1,61067	94637
1,62133	158144
1,63200	225213
1,64267	282662
1,65333	321986
1,66400	341951
1,67467	346037
1,68533	337793
1,69600	319038
1,70667	290690
1,71733	254856
1,72800	214770
1,73867	174743
1,74933	137769
1,76000	105721
1,77067	79554
1,78133	59731
1,79200	45891
1,80267	37384
1,81333	34278
1,82400	37277
1,83467	45568
1,84533	55668
1,85600	63053
1,86667	65239
1,87733	62451
1,88800	56398
1,89867	49037
1,90933	41718
1,92000	35249
1,93067	29888
1,94133	25665
1,95200	22403
1,96267	19946
1,97333	18089
1,98400	16676
1,99467	15609
2,00533	14855
2,01600	14591
2,02667	15169
2,03733	16967
2,04800	20085
2,05867	24052
2,06933	28064
2,08000	31268
2,09067	33160
2,10133	33770
2,11200	33680
2,12267	33914
2,13333	35487
2,14400	38710
2,15467	42834
2,16533	46340
2,17600	47736
2,18667	46402
2,19733	42705
2,20800	37546
2,21867	31969
2,22933	26712
2,24000	22195
2,25067	18524
2,26133	15654
2,27200	13443
2,28267	11783
2,29333	10563
2,30400	9675
2,31467	9045
2,32533	8597
2,33600	8277
2,34667	8045
2,35733	7866
2,36800	7721
2,37867	7583
2,38933	7448
2,40000	7318
2,41067	7171
2,42133	7056
2,43200	6984
2,44267	6994
2,45333	7059
2,46400	7185
2,47467	7314
2,48533	7400
2,49600	7421
2,50667	7362
2,51733	7245
2,52800	7181
2,53867	7318
2,54933	7919
2,56000	9356
2,57067	12082
2,58133	16381
2,59200	22231
2,60267	28967
2,61333	35527
2,62400	40713
2,63467	43601
2,64533	43832
2,65600	41626
2,66667	37687
2,67733	32821
2,68800	27771
2,69867	23076
2,70933	19013
2,72000	15695
2,73067	13079
2,74133	11095
2,75200	9618
2,76267	8554
2,77333	7808
2,78400	7327
2,79467	7055
2,80533	6954
2,81600	7007
2,82667	7163
2,83733	7379
2,84800	7624
2,85867	7878
2,86933	8108
2,88000	8304
2,89067	8444
2,90133	8525
2,91200	8532
2,92267	8458
2,93333	8302
2,94400	8081
2,95467	7797
2,96533	7493
2,97600	7174
2,98667	6871
2,99733	6584
3,00800	6299
3,01867	6040
3,02933	5790
3,04000	5562
3,05067	5360
3,06133	5188
3,07200	5039
3,08267	4947
3,09333	4890
3,10400	4871
3,11467	4886
3,12533	4921
3,13600	4984
3,14667	5075
3,15733	5194
3,16800	5343
3,17867	5519
3,18933	5714
3,20000	5933
3,21067	6170
3,22133	6427
3,23200	6722
3,24267	7035
3,25333	7384
3,26400	7716
3,27467	7994
3,28533	8169
3,29600	8223
3,30667	8141
3,31733	7951
3,32800	7678
3,33867	7368
3,34933	7057
3,36000	6777
3,37067	6542
3,38133	6346
3,39200	6197
3,40267	6075
3,41333	5988
3,42400	5907
3,43467	5823
3,44533	5747
3,45600	5686
3,46667	5641
3,47733	5638
3,48800	5725
3,49867	5917
3,50933	6164
3,52000	6345
3,53067	6324
3,54133	6056
3,55200	5646
3,56267	5201
3,57333	4804
3,58400	4487
3,59467	4267
3,60533	4110
3,61600	4030
3,62667	3997
3,63733	3990
3,64800	4009
3,65867	4045
3,66933	4082
3,68000	4145
3,69067	4233
3,70133	4341
3,71200	4487
3,72267	4668
3,73333	4886
3,74400	5133
3,75467	5415
3,76533	5675
3,77600	5906
3,78667	6099
3,79733	6218
3,80800	6266
3,81867	6233
3,82933	6132
3,84000	5972
3,85067	5768
3,86133	5549
3,87200	5333
3,88267	5138
3,89333	4958
3,90400	4822
3,91467	4696
3,92533	4595
3,93600	4504
3,94667	4419
3,95733	4339
3,96800	4267
3,97867	4196
3,98933	4132
4,00000	4082
4,01067	4026
4,02133	3981
4,03200	3947
4,04267	3928
4,05333	3928
4,06400	3930
4,07467	3941
4,08533	3964
4,09600	3991
4,10667	4038
4,11733	4086
4,12800	4133
4,13867	4214
4,14933	4308
4,16000	4397
4,17067	4505
4,18133	4637
4,19200	4772
4,20267	4914
4,21333	5086
4,22400	5271
4,23467	5459
4,24533	5688
4,25600	5909
4,26667	6143
4,27733	6365
4,28800	6584
4,29867	6769
4,30933	6923
4,32000	7035
4,33067	7096
4,34133	7111
4,35200	7080
4,36267	6997
4,37333	6874
4,38400	6735
4,39467	6581
4,40533	6415
4,41600	6246
4,42667	6078
4,43733	5921
4,44800	5780
4,45867	5646
4,46933	5534
4,48000	5443
4,49067	5355
4,50133	5294
4,51200	5216
4,52267	5144
4,53333	5062
4,54400	4971
4,55467	4874
4,56533	4774
4,57600	4668
4,58667	4551
4,59733	4442
4,60800	4341
4,61867	4253
4,62933	4176
4,64000	4104
4,65067	4042
4,66133	3991
4,67200	3953
4,68267	3917
4,69333	3886
4,70400	3860
4,71467	3839
4,72533	3815
4,73600	3802
4,74667	3794
4,75733	3790
4,76800	3789
4,77867	3792
4,78933	3804
4,80000	3811
4,81067	3810
4,82133	3809
4,83200	3807
4,84267	3806
4,85333	3811
4,86400	3797
4,87467	3792
4,88533	3787
4,89600	3775
4,90667	3773
4,91733	3765
4,92800	3755
4,93867	3765
4,94933	3768
4,96000	3783
4,97067	3801
4,98133	3835
4,99200	3884
5,00267	3940
5,01333	3997
5,02400	4059
5,03467	4133
5,04533	4210
5,05600	4283
5,06667	4345
5,07733	4398
5,08800	4446
5,09867	4485
5,10933	4509
5,12000	4519
5,13067	4522
5,14133	4512
5,15200	4491
5,16267	4467
5,17333	4436
5,18400	4404
5,19467	4361
5,20533	4310
5,21600	4267
5,22667	4216
5,23733	4169
5,24800	4122
5,25867	4074
5,26933	4029
5,28000	3998
5,29067	3962
5,30133	3932
5,31200	3920
5,32267	3901
5,33333	3888
5,34400	3886
5,35467	3891
5,36533	3893
5,37600	3887
5,38667	3885
5,39733	3894
5,40800	3905
5,41867	3927
5,42933	3946
5,44000	3969
5,45067	3992
5,46133	4018
5,47200	4051
5,48267	4080
5,49333	4095
5,50400	4126
5,51467	4132
5,52533	4128
5,53600	4128
5,54667	4116
5,55733	4093
5,56800	4068
5,57867	4055
5,58933	4043
5,60000	4040
5,61067	4034
5,62133	4038
5,63200	4037
5,64267	4042
5,65333	4058
5,66400	4082
5,67467	4107
5,68533	4138
5,69600	4167
5,70667	4203
5,71733	4257
5,72800	4309
5,73867	4375
5,74933	4433
5,76000	4491
5,77067	4543
5,78133	4592
5,79200	4629
5,80267	4664
5,81333	4683
5,82400	4680
5,83467	4678
5,84533	4667
5,85600	4666
5,86667	4666
5,87733	4688
5,88800	4742
5,89867	4838
5,90933	5021
5,92000	5290
5,93067	5667
5,94133	6170
5,95200	6832
5,96267	7644
5,97333	8613
5,98400	9694
5,99467	10841
6,00533	12006
6,01600	13113
6,02667	14080
6,03733	14850
6,04800	15375
6,05867	15642
6,06933	15634
6,08000	15391
6,09067	14955
6,10133	14387
6,11200	13740
6,12267	13059
6,13333	12381
6,14400	11752
6,15467	11187
6,16533	10687
6,17600	10245
6,18667	9861
6,19733	9542
6,20800	9281
6,21867	9067
6,22933	8900
6,24000	8791
6,25067	8747
6,26133	8783
6,27200	8919
6,28267	9171
6,29333	9566
6,30400	10128
6,31467	10879
6,32533	11829
6,33600	12982
6,34667	14339
6,35733	15853
6,36800	17482
6,37867	19176
6,38933	20808
6,40000	22329
6,41067	23624
6,42133	24616
6,43200	25223
6,44267	25415
6,45333	25173
6,46400	24525
6,47467	23503
6,48533	22193
6,49600	20675
6,50667	19043
6,51733	17355
6,52800	15697
6,53867	14120
6,54933	12680
6,56000	11392
6,57067	10285
6,58133	9330
6,59200	8536
6,60267	7891
6,61333	7358
6,62400	6932
6,63467	6601
6,64533	6350
6,65600	6161
6,66667	6027
6,67733	5920
6,68800	5851
6,69867	5802
6,70933	5781
6,72000	5782
6,73067	5790
6,74133	5810
6,75200	5828
6,76267	5843
6,77333	5878
6,78400	5907
6,79467	5929
6,80533	5964
6,81600	5999
6,82667	6035
6,83733	6083
6,84800	6117
6,85867	6153
6,86933	6176
6,88000	6201
6,89067	6208
6,90133	6217
6,91200	6218
6,92267	6215
6,93333	6199
6,94400	6183
6,95467	6167
6,96533	6144
6,97600	6118
6,98667	6099
6,99733	6078
7,00800	6064
7,01867	6057
7,02933	6055
7,04000	6059
7,05067	6068
7,06133	6086
7,07200	6128
7,08267	6177
7,09333	6251
7,10400	6355
7,11467	6469
7,12533	6617
7,13600	6774
7,14667	6955
7,15733	7153
7,16800	7359
7,17867	7578
7,18933	7794
7,20000	8005
7,21067	8197
7,22133	8373
7,23200	8494
7,24267	8603
7,25333	8670
7,26400	8692
7,27467	8704
7,28533	8692
7,29600	8671
7,30667	8632
7,31733	8586
7,32800	8554
7,33867	8514
7,34933	8476
7,36000	8452
7,37067	8418
7,38133	8386
7,39200	8354
7,40267	8312
7,41333	8265
7,42400	8217
7,43467	8168
7,44533	8126
7,45600	8085
7,46667	8053
7,47733	8033
7,48800	8032
7,49867	8047
7,50933	8078
7,52000	8134
7,53067	8210
7,54133	8310
7,55200	8438
7,56267	8586
7,57333	8734
7,58400	8892
7,59467	9049
7,60533	9208
7,61600	9339
7,62667	9448
7,63733	9544
7,64800	9601
7,65867	9609
7,66933	9580
7,68000	9531
7,69067	9447
7,70133	9341
7,71200	9226
7,72267	9106
7,73333	8981
7,74400	8873
7,75467	8777
7,76533	8691
7,77600	8621
7,78667	8557
7,79733	8499
7,80800	8435
7,81867	8375
7,82933	8292
7,84000	8209
7,85067	8119
7,86133	8036
7,87200	7947
7,88267	7858
7,89333	7777
7,90400	7716
7,91467	7665
7,92533	7646
7,93600	7642
7,94667	7654
7,95733	7697
7,96800	7762
7,97867	7830
7,98933	7918
8,00000	8013
8,01067	8110
8,02133	8189
8,03200	8279
8,04267	8356
8,05333	8432
8,06400	8518
8,07467	8639
8,08533	8796
8,09600	9026
8,10667	9360
8,11733	9803
8,12800	10379
8,13867	11109
8,14933	11991
8,16000	12992
8,17067	14070
8,18133	15144
8,19200	16151
8,20267	17022
8,21333	17730
8,22400	18223
8,23467	18512
8,24533	18610
8,25600	18567
8,26667	18408
8,27733	18187
8,28800	17937
8,29867	17679
8,30933	17437
8,32000	17211
8,33067	17009
8,34133	16838
8,35200	16692
8,36267	16579
8,37333	16466
8,38400	16353
8,39467	16241
8,40533	16115
8,41600	15965
8,42667	15779
8,43733	15545
8,44800	15272
8,45867	14954
8,46933	14600
8,48000	14218
8,49067	13836
8,50133	13448
8,51200	13065
8,52267	12706
8,53333	12368
8,54400	12060
8,55467	11790
8,56533	11544
8,57600	11336
8,58667	11167
8,59733	11023
8,60800	10913
8,61867	10834
8,62933	10781
8,64000	10729
8,65067	10692
8,66133	10672
8,67200	10648
8,68267	10618
8,69333	10584
8,70400	10540
8,71467	10482
8,72533	10427
8,73600	10364
8,74667	10314
8,75733	10267
8,76800	10259
8,77867	10287
8,78933	10357
8,80000	10468
8,81067	10625
8,82133	10845
8,83200	11114
8,84267	11423
8,85333	11778
8,86400	12157
8,87467	12560
8,88533	12987
8,89600	13436
8,90667	13905
8,91733	14429
8,92800	15002
8,93867	15649
8,94933	16388
8,96000	17209
8,97067	18103
8,98133	19056
8,99200	20012
9,00267	20915
9,01333	21714
9,02400	22327
9,03467	22719
9,04533	22839
9,05600	22679
9,06667	22241
9,07733	21567
9,08800	20693
9,09867	19692
9,10933	18613
9,12000	17520
9,13067	16461
9,14133	15481
9,15200	14600
9,16267	13837
9,17333	13184
9,18400	12639
9,19467	12208
9,20533	11850
9,21600	11579
9,22667	11359
9,23733	11182
9,24800	11047
9,25867	10938
9,26933	10853
9,28000	10779
9,29067	10709
9,30133	10641
9,31200	10580
9,32267	10508
9,33333	10437
9,34400	10373
9,35467	10294
9,36533	10227
9,37600	10161
9,38667	10094
9,39733	10030
9,40800	9976
9,41867	9923
9,42933	9886
9,44000	9858
9,45067	9846
9,46133	9869
9,47200	9905
9,48267	9996
9,49333	10116
9,50400	10281
9,51467	10492
9,52533	10737
9,53600	11032
9,54667	11375
9,55733	11763
9,56800	12188
9,57867	12644
9,58933	13139
9,60000	13661
9,61067	14229
9,62133	14803
9,63200	15372
9,64267	15927
9,65333	16434
9,66400	16862
9,67467	17206
9,68533	17446
9,69600	17547
9,70667	17502
9,71733	17327
9,72800	17049
9,73867	16673
9,74933	16225
9,76000	15766
9,77067	15327
9,78133	14915
9,79200	14569
9,80267	14296
9,81333	14112
9,82400	14003
9,83467	13959
9,84533	13948
9,85600	13976
9,86667	14007
9,87733	14016
9,88800	13999
9,89867	13961
9,90933	13881
9,92000	13766
9,93067	13620
9,94133	13449
9,95200	13271
9,96267	13090
9,97333	12916
9,98400	12747
9,99467	12595
10,00533	12461
10,01600	12336
10,02667	12202
10,03733	12087
10,04800	11985
10,05867	11873
10,06933	11774
10,08000	11673
10,09067	11578
10,10133	11487
10,11200	11407
10,12267	11333
10,13333	11272
10,14400	11220
10,15467	11182
10,16533	11148
10,17600	11131
10,18667	11127
10,19733	11121
10,20800	11126
10,21867	11142
10,22933	11175
10,24000	11221
10,25067	11288
10,26133	11372
10,27200	11494
10,28267	11640
10,29333	11849
10,30400	12114
10,31467	12466
10,32533	12940
10,33600	13580
10,34667	14432
10,35733	15554
10,36800	16989
10,37867	18801
10,38933	20989
10,40000	23598
10,41067	26566
10,42133	29875
10,43200	33391
10,44267	37010
10,45333	40571
10,46400	43925
10,47467	46868
10,48533	49282
10,49600	51044
10,50667	52060
10,51733	52308
10,52800	51804
10,53867	50587
10,54933	48746
10,56000	46402
10,57067	43694
10,58133	40735
10,59200	37666
10,60267	34585
10,61333	31609
10,62400	28795
10,63467	26214
10,64533	23881
10,65600	21831
10,66667	20052
10,67733	18537
10,68800	17271
10,69867	16216
10,70933	15367
10,72000	14705
10,73067	14184
10,74133	13806
10,75200	13529
10,76267	13344
10,77333	13245
10,78400	13203
10,79467	13213
10,80533	13247
10,81600	13295
10,82667	13345
10,83733	13382
10,84800	13398
10,85867	13382
10,86933	13341
10,88000	13257
10,89067	13145
10,90133	13021
10,91200	12871
10,92267	12758
10,93333	12685
10,94400	12699
10,95467	12851
10,96533	13230
10,97600	13933
10,98667	15137
10,99733	17064
11,00800	20037
11,01867	24420
11,02933	30728
11,04000	39458
11,05067	51264
11,06133	66674
11,07200	86145
11,08267	109942
11,09333	137842
11,10400	169494
11,11467	203633
11,12533	238933
11,13600	273295
11,14667	304849
11,15733	331440
11,16800	351450
11,17867	363563
11,18933	367264
11,20000	362653
11,21067	350364
11,22133	331628
11,23200	307859
11,24267	280686
11,25333	251746
11,26400	222381
11,27467	193929
11,28533	167146
11,29600	142791
11,30667	121102
11,31733	102299
11,32800	86201
11,33867	72703
11,34933	61489
11,36000	52294
11,37067	44792
11,38133	38718
11,39200	33801
11,40267	29851
11,41333	26676
11,42400	24139
11,43467	22109
11,44533	20500
11,45600	19240
11,46667	18260
11,47733	17508
11,48800	16940
11,49867	16526
11,50933	16207
11,52000	15997
11,53067	15829
11,54133	15708
11,55200	15609
11,56267	15530
11,57333	15455
11,58400	15369
11,59467	15281
11,60533	15187
11,61600	15085
11,62667	14975
11,63733	14861
11,64800	14745
11,65867	14628
11,66933	14520
11,68000	14411
11,69067	14322
11,70133	14241
11,71200	14193
11,72267	14163
11,73333	14170
11,74400	14190
11,75467	14235
11,76533	14290
11,77600	14357
11,78667	14429
11,79733	14496
11,80800	14563
11,81867	14621
11,82933	14660
11,84000	14687
11,85067	14709
11,86133	14709
11,87200	14701
11,88267	14689
11,89333	14666
11,90400	14652
11,91467	14626
11,92533	14605
11,93600	14595
11,94667	14597
11,95733	14603
11,96800	14624
11,97867	14662
11,98933	14704
12,00000	14769
12,01067	14839
12,02133	14918
12,03200	15006
12,04267	15106
12,05333	15213
12,06400	15342
12,07467	15503
12,08533	15686
12,09600	15916
12,10667	16211
12,11733	16566
12,12800	16989
12,13867	17497
12,14933	18086
12,16000	18728
12,17067	19418
12,18133	20089
12,19200	20714
12,20267	21257
12,21333	21666
12,22400	21931
12,23467	22013
12,24533	21950
12,25600	21715
12,26667	21375
12,27733	20931
12,28800	20444
12,29867	19940
12,30933	19466
12,32000	19034
12,33067	18669
12,34133	18362
12,35200	18127
12,36267	17969
12,37333	17845
12,38400	17771
12,39467	17734
12,40533	17722
12,41600	17740
12,42667	17772
12,43733	17812
12,44800	17862
12,45867	17924
12,46933	17983
12,48000	18052
12,49067	18120
12,50133	18192
12,51200	18264
12,52267	18332
12,53333	18411
12,54400	18489
12,55467	18588
12,56533	18690
12,57600	18808
12,58667	18928
12,59733	19046
12,60800	19160
12,61867	19262
12,62933	19352
12,64000	19417
12,65067	19460
12,66133	19461
12,67200	19445
12,68267	19425
12,69333	19412
12,70400	19411
12,71467	19476
12,72533	19613
12,73600	19836
12,74667	20144
12,75733	20553
12,76800	21015
12,77867	21518
12,78933	22022
12,80000	22470
12,81067	22826
12,82133	23046
12,83200	23101
12,84267	22997
12,85333	22715
12,86400	22310
12,87467	21784
12,88533	21203
12,89600	20583
12,90667	19967
12,91733	19396
12,92800	18872
12,93867	18417
12,94933	18037
12,96000	17725
12,97067	17467
12,98133	17267
12,99200	17123
13,00267	17005
13,01333	16949
13,02400	16932
13,03467	16955
13,04533	17035
13,05600	17155
13,06667	17320
13,07733	17532
13,08800	17783
13,09867	18073
13,10933	18396
13,12000	18751
13,13067	19227
13,14133	20025
13,15200	21662
13,16267	25256
13,17333	32577
13,18400	45779
13,19467	66265
13,20533	93749
13,21600	125881
13,22667	158890
13,23733	189198
13,24800	214116
13,25867	232614
13,26933	244677
13,28000	251144
13,29067	253062
13,30133	251445
13,31200	247234
13,32267	241129
13,33333	233713
13,34400	225317
13,35467	216318
13,36533	206908
13,37600	197289
13,38667	187618
13,39733	177988
13,40800	168552
13,41867	159334
13,42933	150450
13,44000	141911
13,45067	133763
13,46133	126002
13,47200	118691
13,48267	111785
13,49333	105323
13,50400	99241
13,51467	93578
13,52533	88277
13,53600	83360
13,54667	78758
13,55733	74484
13,56800	70509
13,57867	66798
13,58933	63354
13,60000	60144
13,61067	57191
13,62133	54445
13,63200	51923
13,64267	49591
13,65333	47448
13,66400	45468
13,67467	43673
13,68533	42006
13,69600	40471
13,70667	39039
13,71733	37713
13,72800	36462
13,73867	35297
13,74933	34188
13,76000	33164
13,77067	32227
13,78133	31367
13,79200	30597
13,80267	29928
13,81333	29355
13,82400	28873
13,83467	28490
13,84533	28180
13,85600	27918
13,86667	27695
13,87733	27492
13,88800	27266
13,89867	27012
13,90933	26718
13,92000	26386
13,93067	25998
13,94133	25580
13,95200	25130
13,96267	24663
13,97333	24202
13,98400	23761
13,99467	23352
14,00533	22972
14,01600	22640
14,02667	22340
14,03733	22074
14,04800	21845
14,05867	21647
14,06933	21467
14,08000	21307
14,09067	21152
14,10133	21011
14,11200	20878
14,12267	20776
14,13333	20694
14,14400	20640
14,15467	20634
14,16533	20696
14,17600	20805
14,18667	20982
14,19733	21229
14,20800	21545
14,21867	21932
14,22933	22338
14,24000	22775
14,25067	23215
14,26133	23618
14,27200	23971
14,28267	24242
14,29333	24424
14,30400	24493
14,31467	24451
14,32533	24301
14,33600	24054
14,34667	23724
14,35733	23345
14,36800	22930
14,37867	22505
14,38933	22106
14,40000	21714
14,41067	21375
14,42133	21086
14,43200	20856
14,44267	20695
14,45333	20585
14,46400	20554
14,47467	20589
14,48533	20697
14,49600	20876
14,50667	21132
14,51733	21460
14,52800	21838
14,53867	22282
14,54933	22748
14,56000	23227
14,57067	23690
14,58133	24111
14,59200	24454
14,60267	24706
14,61333	24843
14,62400	24878
14,63467	24793
14,64533	24605
14,65600	24335
14,66667	24013
14,67733	23648
14,68800	23289
14,69867	22942
14,70933	22628
14,72000	22362
14,73067	22148
14,74133	21985
14,75200	21864
14,76267	21785
14,77333	21724
14,78400	21676
14,79467	21639
14,80533	21591
14,81600	21534
14,82667	21466
14,83733	21397
14,84800	21320
14,85867	21238
14,86933	21165
14,88000	21087
14,89067	21028
14,90133	20996
14,91200	20982
14,92267	20999
14,93333	21071
14,94400	21207
14,95467	21459
14,96533	21858
14,97600	22473
14,98667	23436
14,99733	24925
15,00800	27193
15,01867	30567
15,02933	35513
15,04000	42506
15,05067	52190
15,06133	65079
15,07200	81804
15,08267	102558
15,09333	127525
15,10400	156223
15,11467	187980
15,12533	221306
15,13600	254644
15,14667	285930
15,15733	313270
15,16800	334826
15,17867	349212
15,18933	355616
15,20000	353860
15,21067	344367
15,22133	328127
15,23200	306423
15,24267	280925
15,25333	253078
15,26400	224582
15,27467	196593
15,28533	170269
15,29600	146186
15,30667	124911
15,31733	106554
15,32800	91160
15,33867	78521
15,34933	68390
15,36000	60443
15,37067	54363
15,38133	49801
15,39200	46445
15,40267	44019
15,41333	42261
15,42400	40944
15,43467	39868
15,44533	38906
15,45600	37931
15,46667	36887
15,47733	35744
15,48800	34513
15,49867	33232
15,50933	31941
15,52000	30717
15,53067	29605
15,54133	28665
15,55200	27944
15,56267	27459
15,57333	27220
15,58400	27224
15,59467	27444
15,60533	27844
15,61600	28370
15,62667	28952
15,63733	29546
15,64800	30058
15,65867	30456
15,66933	30699
15,68000	30758
15,69067	30639
15,70133	30349
15,71200	29915
15,72267	29363
15,73333	28775
15,74400	28162
15,75467	27563
15,76533	27008
15,77600	26505
15,78667	26065
15,79733	25684
15,80800	25354
15,81867	25063
15,82933	24803
15,84000	24563
15,85067	24333
15,86133	24109
15,87200	23903
15,88267	23691
15,89333	23496
15,90400	23303
15,91467	23130
15,92533	22985
15,93600	22846
15,94667	22737
15,95733	22646
15,96800	22581
15,97867	22533
15,98933	22509
16,00000	22500
16,01067	22513
16,02133	22556
16,03200	22610
16,04267	22686
16,05333	22759
16,06400	22851
16,07467	22955
16,08533	23064
16,09600	23182
16,10667	23294
16,11733	23410
16,12800	23539
16,13867	23672
16,14933	23816
16,16000	23971
16,17067	24127
16,18133	24288
16,19200	24461
16,20267	24615
16,21333	24760
16,22400	24895
16,23467	25011
16,24533	25106
16,25600	25167
16,26667	25189
16,27733	25196
16,28800	25184
16,29867	25137
16,30933	25068
16,32000	24984
16,33067	24875
16,34133	24764
16,35200	24639
16,36267	24512
16,37333	24379
16,38400	24245
16,39467	24124
16,40533	24006
16,41600	23889
16,42667	23779
16,43733	23666
16,44800	23551
16,45867	23438
16,46933	23336
16,48000	23245
16,49067	23135
16,50133	23046
16,51200	22951
16,52267	22859
16,53333	22775
16,54400	22703
16,55467	22641
16,56533	22573
16,57600	22523
16,58667	22489
16,59733	22477
16,60800	22488
16,61867	22539
16,62933	22636
16,64000	22778
16,65067	22985
16,66133	23271
16,67200	23621
16,68267	24037
16,69333	24512
16,70400	25011
16,71467	25531
16,72533	26051
16,73600	26531
16,74667	26926
16,75733	27230
16,76800	27424
16,77867	27480
16,78933	27405
16,80000	27186
16,81067	26867
16,82133	26426
16,83200	25935
16,84267	25386
16,85333	24817
16,86400	24258
16,87467	23754
16,88533	23296
16,89600	22935
16,90667	22689
16,91733	22599
16,92800	22706
16,93867	23047
16,94933	23704
16,96000	24734
16,97067	26238
16,98133	28328
16,99200	31118
17,00267	34746
17,01333	39311
17,02400	44939
17,03467	51678
17,04533	59594
17,05600	68605
17,06667	78629
17,07733	89372
17,08800	100598
17,09867	111841
17,10933	122648
17,12000	132500
17,13067	140890
17,14133	147386
17,15200	151601
17,16267	153315
17,17333	152470
17,18400	149117
17,19467	143515
17,20533	136017
17,21600	127073
17,22667	117139
17,23733	106703
17,24800	96203
17,25867	86053
17,26933	76499
17,28000	67790
17,29067	60019
17,30133	53250
17,31200	47457
17,32267	42566
17,33333	38524
17,34400	35193
17,35467	32477
17,36533	30279
17,37600	28503
17,38667	27096
17,39733	25977
17,40800	25120
17,41867	24485
17,42933	24065
17,44000	23828
17,45067	23793
17,46133	23942
17,47200	24273
17,48267	24807
17,49333	25515
17,50400	26375
17,51467	27351
17,52533	28428
17,53600	29528
17,54667	30607
17,55733	31586
17,56800	32426
17,57867	33066
17,58933	33477
17,60000	33640
17,61067	33561
17,62133	33273
17,63200	32795
17,64267	32196
17,65333	31530
17,66400	30871
17,67467	30284
17,68533	29853
17,69600	29648
17,70667	29762
17,71733	30257
17,72800	31258
17,73867	32824
17,74933	35043
17,76000	37954
17,77067	41596
17,78133	45928
17,79200	50877
17,80267	56272
17,81333	61909
17,82400	67515
17,83467	72789
17,84533	77420
17,85600	81114
17,86667	83639
17,87733	84846
17,88800	84681
17,89867	83168
17,90933	80441
17,92000	76700
17,93067	72190
17,94133	67203
17,95200	61984
17,96267	56787
17,97333	51782
17,98400	47160
17,99467	42982
18,00533	39312
18,01600	36157
18,02667	33493
18,03733	31279
18,04800	29465
18,05867	27990
18,06933	26794
18,08000	25844
18,09067	25077
18,10133	24466
18,11200	23978
18,12267	23601
18,13333	23301
18,14400	23091
18,15467	22944
18,16533	22845
18,17600	22810
18,18667	22812
18,19733	22841
18,20800	22908
18,21867	22967
18,22933	23029
18,24000	23081
18,25067	23109
18,26133	23122
18,27200	23098
18,28267	23041
18,29333	22960
18,30400	22878
18,31467	22770
18,32533	22657
18,33600	22547
18,34667	22434
18,35733	22344
18,36800	22274
18,37867	22192
18,38933	22129
18,40000	22075
18,41067	22031
18,42133	21986
18,43200	21959
18,44267	21936
18,45333	21908
18,46400	21877
18,47467	21850
18,48533	21827
18,49600	21782
18,50667	21744
18,51733	21693
18,52800	21647
18,53867	21587
18,54933	21529
18,56000	21466
18,57067	21402
18,58133	21337
18,59200	21285
18,60267	21239
18,61333	21202
18,62400	21189
18,63467	21197
18,64533	21233
18,65600	21308
18,66667	21412
18,67733	21571
18,68800	21781
18,69867	22058
18,70933	22380
18,72000	22785
18,73067	23270
18,74133	23805
18,75200	24410
18,76267	25066
18,77333	25749
18,78400	26426
18,79467	27069
18,80533	27656
18,81600	28153
18,82667	28521
18,83733	28754
18,84800	28853
18,85867	28807
18,86933	28634
18,88000	28354
18,89067	27996
18,90133	27584
18,91200	27147
18,92267	26703
18,93333	26291
18,94400	25922
18,95467	25600
18,96533	25349
18,97600	25161
18,98667	25043
18,99733	24997
19,00800	25043
19,01867	25182
19,02933	25412
19,04000	25750
19,05067	26203
19,06133	26773
19,07200	27473
19,08267	28330
19,09333	29327
19,10400	30446
19,11467	31705
19,12533	33070
19,13600	34498
19,14667	35947
19,15733	37357
19,16800	38659
19,17867	39783
19,18933	40661
19,20000	41247
19,21067	41497
19,22133	41400
19,23200	40944
19,24267	40169
19,25333	39132
19,26400	37883
19,27467	36491
19,28533	35024
19,29600	33555
19,30667	32139
19,31733	30810
19,32800	29597
19,33867	28503
19,34933	27549
19,36000	26718
19,37067	25997
19,38133	25398
19,39200	24882
19,40267	24443
19,41333	24071
19,42400	23747
19,43467	23487
19,44533	23246
19,45600	23054
19,46667	22901
19,47733	22772
19,48800	22683
19,49867	22616
19,50933	22582
19,52000	22611
19,53067	22713
19,54133	22875
19,55200	23151
19,56267	23537
19,57333	24054
19,58400	24723
19,59467	25559
19,60533	26515
19,61600	27592
19,62667	28727
19,63733	29882
19,64800	30977
19,65867	31962
19,66933	32758
19,68000	33344
19,69067	33669
19,70133	33725
19,71200	33529
19,72267	33128
19,73333	32539
19,74400	31844
19,75467	31095
19,76533	30340
19,77600	29655
19,78667	29088
19,79733	28693
19,80800	28498
19,81867	28529
19,82933	28827
19,84000	29386
19,85067	30202
19,86133	31265
19,87200	32506
19,88267	33892
19,89333	35323
19,90400	36723
19,91467	37992
19,92533	39039
19,93600	39799
19,94667	40207
19,95733	40225
19,96800	39868
19,97867	39146
19,98933	38119
20,00000	36870
20,01067	35449
20,02133	33939
20,03200	32414
20,04267	30924
20,05333	29532
20,06400	28246
20,07467	27097
20,08533	26085
20,09600	25211
20,10667	24461
20,11733	23826
20,12800	23298
20,13867	22862
20,14933	22507
20,16000	22221
20,17067	22010
20,18133	21855
20,19200	21756
20,20267	21715
20,21333	21738
20,22400	21849
20,23467	22044
20,24533	22363
20,25600	22818
20,26667	23465
20,27733	24335
20,28800	25451
20,29867	26829
20,30933	28454
20,32000	30312
20,33067	32356
20,34133	34484
20,35200	36587
20,36267	38531
20,37333	40166
20,38400	41394
20,39467	42114
20,40533	42290
20,41600	41896
20,42667	41002
20,43733	39682
20,44800	38025
20,45867	36195
20,46933	34258
20,48000	32359
20,49067	30552
20,50133	28921
20,51200	27483
20,52267	26244
20,53333	25209
20,54400	24355
20,55467	23668
20,56533	23116
20,57600	22681
20,58667	22349
20,59733	22088
20,60800	21886
20,61867	21743
20,62933	21628
20,64000	21541
20,65067	21483
20,66133	21439
20,67200	21403
20,68267	21380
20,69333	21359
20,70400	21346
20,71467	21333
20,72533	21327
20,73600	21327
20,74667	21329
20,75733	21340
20,76800	21351
20,77867	21368
20,78933	21391
20,80000	21413
20,81067	21433
20,82133	21465
20,83200	21477
20,84267	21489
20,85333	21487
20,86400	21490
20,87467	21479
20,88533	21453
20,89600	21431
20,90667	21399
20,91733	21382
20,92800	21374
20,93867	21375
20,94933	21397
20,96000	21444
20,97067	21521
20,98133	21623
20,99200	21766
21,00267	21934
21,01333	22126
21,02400	22334
21,03467	22546
21,04533	22757
21,05600	22951
21,06667	23092
21,07733	23199
21,08800	23255
21,09867	23266
21,10933	23206
21,12000	23107
21,13067	22960
21,14133	22793
21,15200	22586
21,16267	22386
21,17333	22188
21,18400	21996
21,19467	21810
21,20533	21665
21,21600	21540
21,22667	21460
21,23733	21407
21,24800	21400
21,25867	21435
21,26933	21516
21,28000	21653
21,29067	21843
21,30133	22081
21,31200	22370
21,32267	22734
21,33333	23145
21,34400	23604
21,35467	24107
21,36533	24660
21,37600	25253
21,38667	25884
21,39733	26549
21,40800	27288
21,41867	28106
21,42933	29053
21,44000	30204
21,45067	31651
21,46133	33462
21,47200	35770
21,48267	38664
21,49333	42259
21,50400	46582
21,51467	51669
21,52533	57444
21,53600	63776
21,54667	70454
21,55733	77212
21,56800	83706
21,57867	89592
21,58933	94530
21,60000	98203
21,61067	100393
21,62133	100961
21,63200	99889
21,64267	97267
21,65333	93264
21,66400	88170
21,67467	82261
21,68533	75875
21,69600	69299
21,70667	62845
21,71733	56697
21,72800	51044
21,73867	45967
21,74933	41514
21,76000	37688
21,77067	34453
21,78133	31778
21,79200	29569
21,80267	27786
21,81333	26344
21,82400	25200
21,83467	24284
21,84533	23564
21,85600	23006
21,86667	22583
21,87733	22250
21,88800	21989
21,89867	21798
21,90933	21649
21,92000	21535
21,93067	21458
21,94133	21404
21,95200	21362
21,96267	21315
21,97333	21284
21,98400	21269
21,99467	21248
22,00533	21242
22,01600	21241
22,02667	21247
22,03733	21260
22,04800	21277
22,05867	21301
22,06933	21330
22,08000	21355
22,09067	21373
22,10133	21377
22,11200	21371
22,12267	21353
22,13333	21319
22,14400	21261
22,15467	21191
22,16533	21106
22,17600	21027
22,18667	20954
22,19733	20885
22,20800	20821
22,21867	20787
22,22933	20755
22,24000	20740
22,25067	20731
22,26133	20736
22,27200	20758
22,28267	20782
22,29333	20796
22,30400	20809
22,31467	20824
22,32533	20841
22,33600	20868
22,34667	20896
22,35733	20938
22,36800	20986
22,37867	21052
22,38933	21135
22,40000	21225
22,41067	21346
22,42133	21469
22,43200	21602
22,44267	21728
22,45333	21832
22,46400	21919
22,47467	21978
22,48533	21995
22,49600	21967
22,50667	21905
22,51733	21797
22,52800	21672
22,53867	21534
22,54933	21373
22,56000	21226
22,57067	21104
22,58133	21006
22,59200	20960
22,60267	20995
22,61333	21111
22,62400	21341
22,63467	21718
22,64533	22281
22,65600	23075
22,66667	24120
22,67733	25462
22,68800	27105
22,69867	29043
22,70933	31222
22,72000	33596
22,73067	36042
22,74133	38431
22,75200	40619
22,76267	42443
22,77333	43796
22,78400	44576
22,79467	44729
22,80533	44249
22,81600	43209
22,82667	41683
22,83733	39806
22,84800	37706
22,85867	35517
22,86933	33358
22,88000	31317
22,89067	29459
22,90133	27810
22,91200	26406
22,92267	25238
22,93333	24292
22,94400	23523
22,95467	22934
22,96533	22468
22,97600	22119
22,98667	21861
22,99733	21660
23,00800	21519
23,01867	21405
23,02933	21328
23,04000	21257
23,05067	21208
23,06133	21174
23,07200	21137
23,08267	21105
23,09333	21081
23,10400	21057
23,11467	21032
23,12533	21004
23,13600	20980
23,14667	20948
23,15733	20922
23,16800	20878
23,17867	20814
23,18933	20769
23,20000	20733
23,21067	20684
23,22133	20645
23,23200	20626
23,24267	20611
23,25333	20617
23,26400	20637
23,27467	20669
23,28533	20722
23,29600	20789
23,30667	20868
23,31733	20965
23,32800	21072
23,33867	21171
23,34933	21283
23,36000	21400
23,37067	21536
23,38133	21648
23,39200	21751
23,40267	21832
23,41333	21907
23,42400	21938
23,43467	21955
23,44533	21925
23,45600	21857
23,46667	21767
23,47733	21650
23,48800	21496
23,49867	21317
23,50933	21129
23,52000	20941
23,53067	20757
23,54133	20565
23,55200	20390
23,56267	20236
23,57333	20099
23,58400	19981
23,59467	19873
23,60533	19800
23,61600	19734
23,62667	19691
23,63733	19666
23,64800	19666
23,65867	19702
23,66933	19777
23,68000	19878
23,69067	20016
23,70133	20187
23,71200	20368
23,72267	20568
23,73333	20768
23,74400	20947
23,75467	21087
23,76533	21176
23,77600	21216
23,78667	21198
23,79733	21123
23,80800	21001
23,81867	20852
23,82933	20675
23,84000	20487
23,85067	20298
23,86133	20129
23,87200	19982
23,88267	19854
23,89333	19747
23,90400	19669
23,91467	19611
23,92533	19585
23,93600	19579
23,94667	19617
23,95733	19689
23,96800	19798
23,97867	19962
23,98933	20162
24,00000	20431
24,01067	20754
24,02133	21119
24,03200	21534
24,04267	21982
24,05333	22458
24,06400	22940
24,07467	23412
24,08533	23862
24,09600	24276
24,10667	24646
24,11733	24943
24,12800	25172
24,13867	25316
24,14933	25369
24,16000	25334
24,17067	25200
24,18133	24984
24,19200	24706
24,20267	24354
24,21333	23967
24,22400	23558
24,23467	23144
24,24533	22756
24,25600	22393
24,26667	22106
24,27733	21875
24,28800	21713
24,29867	21635
24,30933	21612
24,32000	21640
24,33067	21703
24,34133	21788
24,35200	21869
24,36267	21936
24,37333	21977
24,38400	21966
24,39467	21902
24,40533	21797
24,41600	21637
24,42667	21437
24,43733	21210
24,44800	20951
24,45867	20699
24,46933	20440
24,48000	20194
24,49067	19967
24,50133	19756
24,51200	19590
24,52267	19442
24,53333	19332
24,54400	19251
24,55467	19220
24,56533	19220
24,57600	19240
24,58667	19301
24,59733	19387
24,60800	19483
24,61867	19593
24,62933	19706
24,64000	19813
24,65067	19904
24,66133	19977
24,67200	20022
24,68267	20025
24,69333	20002
24,70400	19932
24,71467	19833
24,72533	19716
24,73600	19578
24,74667	19436
24,75733	19286
24,76800	19134
24,77867	19000
24,78933	18873
24,80000	18763
24,81067	18680
24,82133	18616
24,83200	18576
24,84267	18538
24,85333	18530
24,86400	18542
24,87467	18548
24,88533	18567
24,89600	18592
24,90667	18621
24,91733	18633
24,92800	18637
24,93867	18636
24,94933	18619
24,96000	18595
24,97067	18554
24,98133	18516
24,99200	18473
25,00267	18434
25,01333	18391
25,02400	18350
25,03467	18315
25,04533	18288
25,05600	18271
25,06667	18271
25,07733	18266
25,08800	18282
25,09867	18307
25,10933	18337
25,12000	18373
25,13067	18415
25,14133	18459
25,15200	18503
25,16267	18551
25,17333	18593
25,18400	18632
25,19467	18670
25,20533	18684
25,21600	18707
25,22667	18719
25,23733	18727
25,24800	18716
25,25867	18700
25,26933	18668
25,28000	18637
25,29067	18598
25,30133	18568
25,31200	18532
25,32267	18502
25,33333	18481
25,34400	18481
25,35467	18485
25,36533	18522
25,37600	18567
25,38667	18643
25,39733	18742
25,40800	18879
25,41867	19044
25,42933	19238
25,44000	19462
25,45067	19704
25,46133	19947
25,47200	20207
25,48267	20451
25,49333	20670
25,50400	20864
25,51467	21006
25,52533	21092
25,53600	21140
25,54667	21136
25,55733	21086
25,56800	20998
25,57867	20884
25,58933	20748
25,60000	20614
25,61067	20490
25,62133	20395
25,63200	20344
25,64267	20347
25,65333	20416
25,66400	20541
25,67467	20726
25,68533	20984
25,69600	21293
25,70667	21636
25,71733	22011
25,72800	22400
25,73867	22784
25,74933	23149
25,76000	23472
25,77067	23759
25,78133	24016
25,79200	24260
25,80267	24504
25,81333	24793
25,82400	25141
25,83467	25571
25,84533	26097
25,85600	26716
25,86667	27394
25,87733	28107
25,88800	28796
25,89867	29416
25,90933	29898
25,92000	30189
25,93067	30258
25,94133	30084
25,95200	29696
25,96267	29096
25,97333	28343
25,98400	27472
25,99467	26546
26,00533	25622
26,01600	24729
26,02667	23902
26,03733	23165
26,04800	22510
26,05867	21931
26,06933	21442
26,08000	21017
26,09067	20653
26,10133	20333
26,11200	20057
26,12267	19808
26,13333	19587
26,14400	19408
26,15467	19244
26,16533	19101
26,17600	18990
26,18667	18891
26,19733	18807
26,20800	18747
26,21867	18688
26,22933	18651
26,24000	18613
26,25067	18590
26,26133	18586
26,27200	18606
26,28267	18636
26,29333	18684
26,30400	18751
26,31467	18828
26,32533	18924
26,33600	19027
26,34667	19132
26,35733	19231
26,36800	19306
26,37867	19369
26,38933	19402
26,40000	19416
26,41067	19380
26,42133	19331
26,43200	19250
26,44267	19150
26,45333	19038
26,46400	18922
26,47467	18802
26,48533	18688
26,49600	18589
26,50667	18505
26,51733	18431
26,52800	18381
26,53867	18339
26,54933	18324
26,56000	18317
26,57067	18319
26,58133	18348
26,59200	18393
26,60267	18447
26,61333	18501
26,62400	18572
26,63467	18645
26,64533	18711
26,65600	18773
26,66667	18829
26,67733	18879
26,68800	18917
26,69867	18944
26,70933	18955
26,72000	18945
26,73067	18935
26,74133	18908
26,75200	18880
26,76267	18840
26,77333	18805
26,78400	18778
26,79467	18760
26,80533	18745
26,81600	18739
26,82667	18758
26,83733	18794
26,84800	18840
26,85867	18890
26,86933	18958
26,88000	19026
26,89067	19106
26,90133	19177
26,91200	19237
26,92267	19277
26,93333	19308
26,94400	19317
26,95467	19305
26,96533	19286
26,97600	19241
26,98667	19188
26,99733	19119
27,00800	19052
27,01867	18984
27,02933	18935
27,04000	18876
27,05067	18845
27,06133	18830
27,07200	18824
27,08267	18838
27,09333	18848
27,10400	18879
27,11467	18895
27,12533	18916
27,13600	18943
27,14667	18947
27,15733	18953
27,16800	18963
27,17867	18969
27,18933	18982
27,20000	18983
27,21067	18988
27,22133	18992
27,23200	18993
27,24267	18982
27,25333	18972
27,26400	18939
27,27467	18900
27,28533	18835
27,29600	18758
27,30667	18676
27,31733	18589
27,32800	18494
27,33867	18405
27,34933	18316
27,36000	18233
27,37067	18157
27,38133	18080
27,39200	18017
27,40267	17969
27,41333	17918
27,42400	17881
27,43467	17838
27,44533	17799
27,45600	17770
27,46667	17733
27,47733	17700
27,48800	17664
27,49867	17633
27,50933	17608
27,52000	17576
27,53067	17539
27,54133	17512
27,55200	17504
27,56267	17487
27,57333	17468
27,58400	17469
27,59467	17459
27,60533	17458
27,61600	17460
27,62667	17468
27,63733	17484
27,64800	17488
27,65867	17497
27,66933	17512
27,68000	17516
27,69067	17508
27,70133	17507
27,71200	17505
27,72267	17489
27,73333	17466
27,74400	17439
27,75467	17417
27,76533	17391
27,77600	17352
27,78667	17334
27,79733	17314
27,80800	17297
27,81867	17293
27,82933	17288
27,84000	17287
27,85067	17294
27,86133	17292
27,87200	17301
27,88267	17301
27,89333	17309
27,90400	17308
27,91467	17299
27,92533	17293
27,93600	17289
27,94667	17280
27,95733	17285
27,96800	17297
27,97867	17303
27,98933	17322
28,00000	17348
28,01067	17372
28,02133	17413
28,03200	17450
28,04267	17492
28,05333	17537
28,06400	17573
28,07467	17607
28,08533	17633
28,09600	17665
28,10667	17695
28,11733	17709
28,12800	17728
28,13867	17742
28,14933	17744
28,16000	17756
28,17067	17760
28,18133	17772
28,19200	17771
28,20267	17781
28,21333	17787
28,22400	17795
28,23467	17796
28,24533	17795
28,25600	17791
28,26667	17773
28,27733	17760
28,28800	17729
28,29867	17686
28,30933	17640
28,32000	17578
28,33067	17521
28,34133	17459
28,35200	17394
28,36267	17328
28,37333	17278
28,38400	17229
28,39467	17190
28,40533	17149
28,41600	17122
28,42667	17100
28,43733	17078
28,44800	17062
28,45867	17050
28,46933	17044
28,48000	17034
28,49067	17033
28,50133	17037
28,51200	17041
28,52267	17041
28,53333	17062
28,54400	17092
28,55467	17120
28,56533	17150
28,57600	17185
28,58667	17224
28,59733	17269
28,60800	17309
28,61867	17340
28,62933	17358
28,64000	17381
28,65067	17382
28,66133	17379
28,67200	17354
28,68267	17336
28,69333	17291
28,70400	17242
28,71467	17196
28,72533	17144
28,73600	17094
28,74667	17040
28,75733	16991
28,76800	16939
28,77867	16904
28,78933	16866
28,80000	16827
28,81067	16797
28,82133	16765
28,83200	16746
28,84267	16726
28,85333	16697
28,86400	16683
28,87467	16670
28,88533	16665
28,89600	16648
28,90667	16642
28,91733	16628
28,92800	16611
28,93867	16601
28,94933	16582
28,96000	16569
28,97067	16557
28,98133	16551
28,99200	16532
29,00267	16507
29,01333	16479
29,02400	16461
29,03467	16443
29,04533	16434
29,05600	16420
29,06667	16406
29,07733	16399
29,08800	16387
29,09867	16384
29,10933	16371
29,12000	16372
29,13067	16374
29,14133	16380
29,15200	16394
29,16267	16414
29,17333	16433
29,18400	16454
29,19467	16475
29,20533	16510
29,21600	16540
29,22667	16591
29,23733	16618
29,24800	16666
29,25867	16717
29,26933	16764
29,28000	16812
29,29067	16860
29,30133	16913
29,31200	16971
29,32267	17017
29,33333	17054
29,34400	17075
29,35467	17096
29,36533	17087
29,37600	17066
29,38667	17025
29,39733	16976
29,40800	16919
29,41867	16851
29,42933	16790
29,44000	16700
29,45067	16630
29,46133	16563
29,47200	16503
29,48267	16445
29,49333	16393
29,50400	16350
29,51467	16312
29,52533	16297
29,53600	16280
29,54667	16268
29,55733	16261
29,56800	16253
29,57867	16267
29,58933	16276
29,60000	16286
29,61067	16306
29,62133	16330
29,63200	16367
29,64267	16398
29,65333	16434
29,66400	16466
29,67467	16502
29,68533	16526
29,69600	16540
29,70667	16556
29,71733	16556
29,72800	16547
29,73867	16529
29,74933	16520
29,76000	16495
29,77067	16467
29,78133	16447
29,79200	16423
29,80267	16400
29,81333	16392
29,82400	16399
29,83467	16398
29,84533	16398
29,85600	16418
29,86667	16428
29,87733	16441
29,88800	16445
29,89867	16449
29,90933	16446
29,92000	16430
29,93067	16421
29,94133	16393
29,95200	16368
29,96267	16333
29,97333	16305
29,98400	16267
29,99467	16213
30,00533	16180
30,01600	16156
30,02667	16115
30,03733	16089
30,04800	16075
30,05867	16060
30,06933	16048
30,08000	16037
30,09067	16036
30,10133	16035
30,11200	16035
30,12267	16039
30,13333	16048
30,14400	16060
30,15467	16062
30,16533	16069
30,17600	16073
30,18667	16073
30,19733	16063
30,20800	16056
30,21867	16042
30,22933	16037
30,24000	16014
30,25067	15994
30,26133	15982
30,27200	15966
30,28267	15953
30,29333	15936
30,30400	15923
30,31467	15907
30,32533	15900
30,33600	15895
30,34667	15890
30,35733	15884
30,36800	15884
30,37867	15881
30,38933	15880
30,40000	15880
30,41067	15875
30,42133	15877
30,43200	15876
30,44267	15881
30,45333	15888
30,46400	15895
30,47467	15908
30,48533	15926
30,49600	15938
30,50667	15948
30,51733	15965
30,52800	15991
30,53867	16016
30,54933	16040
30,56000	16075
30,57067	16120
30,58133	16165
30,59200	16211
30,60267	16268
30,61333	16330
30,62400	16384
30,63467	16449
30,64533	16511
30,65600	16567
30,66667	16622
30,67733	16672
30,68800	16706
30,69867	16729
30,70933	16742
30,72000	16748
30,73067	16729
30,74133	16711
30,75200	16672
30,76267	16634
30,77333	16588
30,78400	16538
30,79467	16483
30,80533	16429
30,81600	16384
30,82667	16337
30,83733	16292
30,84800	16263
30,85867	16238
30,86933	16214
30,88000	16198
30,89067	16204
30,90133	16215
30,91200	16239
30,92267	16271
30,93333	16309
30,94400	16371
30,95467	16446
30,96533	16543
30,97600	16643
30,98667	16760
30,99733	16898
31,00800	17039
31,01867	17179
31,02933	17325
31,04000	17453
31,05067	17562
31,06133	17636
31,07200	17680
31,08267	17677
31,09333	17642
31,10400	17570
31,11467	17470
31,12533	17344
31,13600	17203
31,14667	17053
31,15733	16895
31,16800	16748
31,17867	16614
31,18933	16495
31,20000	16390
31,21067	16296
31,22133	16225
31,23200	16167
31,24267	16134
31,25333	16107
31,26400	16082
31,27467	16063
31,28533	16045
31,29600	16042
31,30667	16035
31,31733	16029
31,32800	16014
31,33867	15998
31,34933	15996
31,36000	15992
31,37067	15978
31,38133	15966
31,39200	15964
31,40267	15965
31,41333	15965
31,42400	15965
31,43467	15963
31,44533	15951
31,45600	15954
31,46667	15944
31,47733	15934
31,48800	15924
31,49867	15925
31,50933	15918
31,52000	15907
31,53067	15893
31,54133	15882
31,55200	15881
31,56267	15868
31,57333	15857
31,58400	15853
31,59467	15835
31,60533	15828
31,61600	15819
31,62667	15808
31,63733	15796
31,64800	15783
31,65867	15766
31,66933	15764
31,68000	15763
31,69067	15757
31,70133	15760
31,71200	15762
31,72267	15757
31,73333	15752
31,74400	15755
31,75467	15760
31,76533	15768
31,77600	15775
31,78667	15779
31,79733	15774
31,80800	15780
31,81867	15782
31,82933	15786
31,84000	15778
31,85067	15784
31,86133	15779
31,87200	15774
31,88267	15778
31,89333	15768
31,90400	15771
31,91467	15753
31,92533	15749
31,93600	15743
31,94667	15739
31,95733	15735
31,96800	15726
31,97867	15731
31,98933	15721
32,00000	15729
32,01067	15729
32,02133	15731
32,03200	15737
32,04267	15744
32,05333	15745
32,06400	15752
32,07467	15773
32,08533	15771
32,09600	15778
32,10667	15791
32,11733	15784
32,12800	15792
32,13867	15794
32,14933	15796
32,16000	15799
32,17067	15792
32,18133	15773
32,19200	15767
32,20267	15761
32,21333	15760
32,22400	15757
32,23467	15748
32,24533	15753
32,25600	15756
32,26667	15747
32,27733	15759
32,28800	15756
32,29867	15761
32,30933	15769
32,32000	15774
32,33067	15791
32,34133	15796
32,35200	15803
32,36267	15813
32,37333	15822
32,38400	15828
32,39467	15843
32,40533	15850
32,41600	15866
32,42667	15887
32,43733	15908
32,44800	15933
32,45867	15961
32,46933	15992
32,48000	16021
32,49067	16058
32,50133	16107
32,51200	16139
32,52267	16174
32,53333	16202
32,54400	16228
32,55467	16255
32,56533	16284
32,57600	16296
32,58667	16319
32,59733	16339
32,60800	16364
32,61867	16384
32,62933	16400
32,64000	16418
32,65067	16444
32,66133	16485
32,67200	16510
32,68267	16541
32,69333	16593
32,70400	16634
32,71467	16684
32,72533	16740
32,73600	16794
32,74667	16852
32,75733	16920
32,76800	16992
32,77867	17061
32,78933	17145
32,80000	17226
32,81067	17308
32,82133	17402
32,83200	17492
32,84267	17584
32,85333	17683
32,86400	17786
32,87467	17897
32,88533	18004
32,89600	18115
32,90667	18236
32,91733	18367
32,92800	18509
32,93867	18635
32,94933	18780
32,96000	18929
32,97067	19075
32,98133	19225
32,99200	19373
33,00267	19528
33,01333	19680
33,02400	19824
33,03467	19971
33,04533	20117
33,05600	20266
33,06667	20415
33,07733	20573
33,08800	20740
33,09867	20917
33,10933	21091
33,12000	21269
33,13067	21446
33,14133	21621
33,15200	21787
33,16267	21937
33,17333	22090
33,18400	22228
33,19467	22370
33,20533	22504
33,21600	22653
33,22667	22810
33,23733	22968
33,24800	23140
33,25867	23323
33,26933	23502
33,28000	23683
33,29067	23859
33,30133	24037
33,31200	24196
33,32267	24344
33,33333	24501
33,34400	24649
33,35467	24796
33,36533	24945
33,37600	25077
33,38667	25219
33,39733	25362
33,40800	25502
33,41867	25646
33,42933	25788
33,44000	25938
33,45067	26086
33,46133	26225
33,47200	26364
33,48267	26487
33,49333	26606
33,50400	26742
33,51467	26888
33,52533	27037
33,53600	27199
33,54667	27347
33,55733	27522
33,56800	27725
33,57867	27915
33,58933	28088
33,60000	28237
33,61067	28355
33,62133	28441
33,63200	28499
33,64267	28547
33,65333	28602
33,66400	28653
33,67467	28705
33,68533	28742
33,69600	28774
33,70667	28809
33,71733	28846
33,72800	28894
33,73867	28927
33,74933	28968
33,76000	29013
33,77067	29063
33,78133	29111
33,79200	29174
33,80267	29238
33,81333	29300
33,82400	29353
33,83467	29393
33,84533	29409
33,85600	29414
33,86667	29433
33,87733	29452
33,88800	29501
33,89867	29546
33,90933	29606
33,92000	29639
33,93067	29675
33,94133	29699
33,95200	29745
33,96267	29834
33,97333	29978
33,98400	30200
33,99467	30479
34,00533	30739
34,01600	30941
34,02667	31087
34,03733	31218
34,04800	31358
34,05867	31412
34,06933	31317
34,08000	31075
34,09067	30797
34,10133	30587
34,11200	30539
34,12267	30687
34,13333	30999
34,14400	31308
34,15467	31455
34,16533	31419
34,17600	31352
34,18667	31573
34,19733	32330
34,20800	33509
34,21867	34656
34,22933	35225
34,24000	35055
34,25067	34417
34,26133	33678
34,27200	33053
34,28267	32629
34,29333	32499
34,30400	32800
34,31467	33549
34,32533	34438
34,33600	35002
34,34667	34926
34,35733	34299
34,36800	33485
34,37867	32768
34,38933	32297
34,40000	32069
34,41067	32033
34,42133	32144
34,43200	32338
34,44267	32570
34,45333	32788
34,46400	32963
34,47467	33077
34,48533	33130
34,49600	33149
34,50667	33166
34,51733	33193
34,52800	33222
34,53867	33217
34,54933	33154
34,56000	33086
34,57067	33048
34,58133	33077
34,59200	33170
34,60267	33285
34,61333	33363
34,62400	33389
34,63467	33380
34,64533	33362
34,65600	33374
34,66667	33426
34,67733	33486
34,68800	33520
34,69867	33529
34,70933	33521
34,72000	33519
34,73067	33535
34,74133	33598
34,75200	33684
34,76267	33774
34,77333	33858
34,78400	33930
34,79467	34000
34,80533	34066
34,81600	34132
34,82667	34207
34,83733	34290
34,84800	34413
34,85867	34546
34,86933	34664
34,88000	34745
34,89067	34802
34,90133	34843
34,91200	34899
34,92267	34966
34,93333	35033
34,94400	35136
34,95467	35266
34,96533	35458
34,97600	35873
34,98667	37042
34,99733	40174
35,00800	46958
35,01867	58981
35,02933	76785
35,04000	99836
35,05067	124617
35,06133	144281
35,07200	151601
35,08267	144962
35,09333	129403
35,10400	111565
35,11467	95822
35,12533	83593
35,13600	74691
35,14667	68395
35,15733	64044
35,16800	61134
35,17867	59118
35,18933	57476
35,20000	55848
35,21067	54219
35,22133	52703
35,23200	51411
35,24267	50372
35,25333	49531
35,26400	48816
35,27467	48226
35,28533	47709
35,29600	47269
35,30667	46887
35,31733	46554
35,32800	46268
35,33867	46064
35,34933	45929
35,36000	45838
35,37067	45647
35,38133	45244
35,39200	44687
35,40267	44164
35,41333	43846
35,42400	43847
35,43467	44417
35,44533	45857
35,45600	48180
35,46667	50817
35,47733	52801
35,48800	53584
35,49867	53278
35,50933	52335
35,52000	51044
35,53067	49572
35,54133	48130
35,55200	47068
35,56267	46738
35,57333	47159
35,58400	47919
35,59467	48369
35,60533	48126
35,61600	47318
35,62667	46308
35,63733	45378
35,64800	44620
35,65867	44034
35,66933	43563
35,68000	43213
35,69067	42955
35,70133	42784
35,71200	42676
35,72267	42611
35,73333	42591
35,74400	42591
35,75467	42625
35,76533	42682
35,77600	42769
35,78667	42950
35,79733	43263
35,80800	43735
35,81867	44340
35,82933	44941
35,84000	45367
35,85067	45521
35,86133	45457
35,87200	45310
35,88267	45123
35,89333	44891
35,90400	44570
35,91467	44178
35,92533	43786
35,93600	43447
35,94667	43175
35,95733	42964
35,96800	42805
35,97867	42718
35,98933	42704
36,00000	42757
36,01067	42861
36,02133	42976
36,03200	43058
36,04267	43077
36,05333	43033
36,06400	42958
36,07467	42869
36,08533	42813
36,09600	42786
36,10667	42797
36,11733	42854
36,12800	42929
36,13867	43026
36,14933	43144
36,16000	43301
36,17067	43490
36,18133	43665
36,19200	43830
36,20267	43962
36,21333	44098
36,22400	44232
36,23467	44364
36,24533	44454
36,25600	44470
36,26667	44421
36,27733	44364
36,28800	44381
36,29867	44591
36,30933	44987
36,32000	45466
36,33067	45821
36,34133	45898
36,35200	45701
36,36267	45352
36,37333	44992
36,38400	44693
36,39467	44453
36,40533	44268
36,41600	44106
36,42667	43955
36,43733	43804
36,44800	43689
36,45867	43598
36,46933	43523
36,48000	43471
36,49067	43439
36,50133	43427
36,51200	43432
36,52267	43427
36,53333	43433
36,54400	43443
36,55467	43445
36,56533	43446
36,57600	43451
36,58667	43457
36,59733	43462
36,60800	43451
36,61867	43448
36,62933	43463
36,64000	43480
36,65067	43500
36,66133	43537
36,67200	43596
36,68267	43652
36,69333	43709
36,70400	43761
36,71467	43789
36,72533	43810
36,73600	43843
36,74667	43890
36,75733	43972
36,76800	44064
36,77867	44133
36,78933	44162
36,80000	44129
36,81067	44045
36,82133	43943
36,83200	43846
36,84267	43772
36,85333	43717
36,86400	43690
36,87467	43672
36,88533	43658
36,89600	43659
36,90667	43652
36,91733	43662
36,92800	43662
36,93867	43660
36,94933	43667
36,96000	43679
36,97067	43736
36,98133	43833
36,99200	43989
37,00267	44204
37,01333	44448
37,02400	44693
37,03467	44883
37,04533	44954
37,05600	44907
37,06667	44763
37,07733	44552
37,08800	44332
37,09867	44135
37,10933	43977
37,12000	43858
37,13067	43773
37,14133	43724
37,15200	43695
37,16267	43711
37,17333	43743
37,18400	43800
37,19467	43886
37,20533	44000
37,21600	44094
37,22667	44159
37,23733	44170
37,24800	44129
37,25867	44053
37,26933	43971
37,28000	43891
37,29067	43835
37,30133	43775
37,31200	43753
37,32267	43729
37,33333	43708
37,34400	43687
37,35467	43678
37,36533	43657
37,37600	43656
37,38667	43644
37,39733	43644
37,40800	43644
37,41867	43641
37,42933	43640
37,44000	43649
37,45067	43652
37,46133	43655
37,47200	43658
37,48267	43666
37,49333	43671
37,50400	43696
37,51467	43701
37,52533	43707
37,53600	43713
37,54667	43712
37,55733	43711
37,56800	43709
37,57867	43707
37,58933	43705
37,60000	43701
37,61067	43700
37,62133	43715
37,63200	43724
37,64267	43742
37,65333	43750
37,66400	43762
37,67467	43776
37,68533	43796
37,69600	43803
37,70667	43807
37,71733	43815
37,72800	43825
37,73867	43838
37,74933	43854
37,76000	43870
37,77067	43890
37,78133	43915
37,79200	43925
37,80267	43927
37,81333	43921
37,82400	43902
37,83467	43881
37,84533	43865
37,85600	43850
37,86667	43828
37,87733	43826
37,88800	43812
37,89867	43810
37,90933	43814
37,92000	43801
37,93067	43809
37,94133	43802
37,95200	43803
37,96267	43812
37,97333	43808
37,98400	43804
37,99467	43815
38,00533	43803
38,01600	43804
38,02667	43812
38,03733	43810
38,04800	43811
38,05867	43812
38,06933	43811
38,08000	43818
38,09067	43812
38,10133	43821
38,11200	43824
38,12267	43829
38,13333	43818
38,14400	43826
38,15467	43824
38,16533	43834
38,17600	43836
38,18667	43847
38,19733	43854
38,20800	43867
38,21867	43870
38,22933	43884
38,24000	43898
38,25067	43906
38,26133	43921
38,27200	43926
38,28267	43928
38,29333	43938
38,30400	43930
38,31467	43911
38,32533	43911
38,33600	43906
38,34667	43910
38,35733	43908
38,36800	43899
38,37867	43891
38,38933	43893
38,40000	43882
38,41067	43889
38,42133	43893
38,43200	43898
38,44267	43893
38,45333	43897
38,46400	43902
38,47467	43910
38,48533	43922
38,49600	43920
38,50667	43924
38,51733	43933
38,52800	43937
38,53867	43936
38,54933	43932
38,56000	43944
38,57067	43945
38,58133	43944
38,59200	43953
38,60267	43953
38,61333	43959
38,62400	43963
38,63467	43962
38,64533	43979
38,65600	43989
38,66667	43997
38,67733	44016
38,68800	44030
38,69867	44040
38,70933	44060
38,72000	44071
38,73067	44102
38,74133	44140
38,75200	44198
38,76267	44297
38,77333	44468
38,78400	44761
38,79467	45232
38,80533	45966
38,81600	47077
38,82667	48689
38,83733	50886
38,84800	53761
38,85867	57234
38,86933	61161
38,88000	65210
38,89067	68937
38,90133	71895
38,91200	73625
38,92267	73887
38,93333	72661
38,94400	70154
38,95467	66766
38,96533	62937
38,97600	59129
38,98667	55674
38,99733	52767
39,00800	50480
39,01867	48762
39,02933	47524
39,04000	46659
39,05067	46058
39,06133	45637
39,07200	45342
39,08267	45119
39,09333	44945
39,10400	44793
39,11467	44664
39,12533	44540
39,13600	44422
39,14667	44296
39,15733	44169
39,16800	44053
39,17867	43925
39,18933	43792
39,20000	43656
39,21067	43513
39,22133	43366
39,23200	43204
39,24267	43032
39,25333	42861
39,26400	42684
39,27467	42488
39,28533	42296
39,29600	42089
39,30667	41875
39,31733	41655
39,32800	41443
39,33867	41219
39,34933	40973
39,36000	40737
39,37067	40511
39,38133	40290
39,39200	40044
39,40267	39810
39,41333	39597
39,42400	39381
39,43467	39167
39,44533	38964
39,45600	38771
39,46667	38591
39,47733	38398
39,48800	38177
39,49867	37965
39,50933	37745
39,52000	37503
39,53067	37209
39,54133	36892
39,55200	36555
39,56267	36184
39,57333	35819
39,58400	35473
39,59467	35141
39,60533	34776
39,61600	34339
39,62667	33811
39,63733	33186
39,64800	32430
39,65867	31565
39,66933	30613
39,68000	29560
39,69067	28422
39,70133	27252
39,71200	26062
39,72267	24868
39,73333	23651
39,74400	22407
39,75467	21156
39,76533	19928
39,77600	18724
39,78667	17576
39,79733	16482
39,80800	15458
39,81867	14492
39,82933	13572
39,84000	12721
39,85067	11925
39,86133	11185
39,87200	10497
39,88267	9864
39,89333	9278
39,90400	8747
39,91467	8260
39,92533	7810
39,93600	7392
39,94667	7006
39,95733	6655
39,96800	6332
39,97867	6028
39,98933	5749
40,00000	5480
40,01067	5235
40,02133	5014
40,03200	4805
40,04267	4604
40,05333	4421
40,06400	4251
40,07467	4095
40,08533	3942
40,09600	3790
40,10667	3656
40,11733	3529
40,12800	3401
40,13867	3284
40,14933	3169
40,16000	3062
40,17067	2959
40,18133	2859
40,19200	2775
40,20267	2676
40,21333	2590
40,22400	2512
40,23467	2431
40,24533	2344
40,25600	2273
40,26667	2207
40,27733	2138
40,28800	2073
40,29867	1998
40,30933	1943
40,32000	1877
40,33067	1821
40,34133	1766
40,35200	1715
40,36267	1662
40,37333	1607
40,38400	1563
40,39467	1510
40,40533	1473
40,41600	1427
40,42667	1382
40,43733	1341
40,44800	1296
40,45867	1268
40,46933	1224
40,48000	1190
40,49067	1152
40,50133	1121
40,51200	1089
40,52267	1057
40,53333	1027
40,54400	991
40,55467	961
40,56533	935
40,57600	899
40,58667	875
40,59733	845
40,60800	817
40,61867	794
40,62933	759
40,64000	737
40,65067	715
40,66133	687
40,67200	668
40,68267	630
40,69333	607
40,70400	590
40,71467	560
40,72533	533
40,73600	509
40,74667	480
40,75733	462
40,76800	436
40,77867	415
40,78933	391
40,80000	368
40,81067	344
40,82133	321
40,83200	300
40,84267	278
40,85333	258
40,86400	247
40,87467	224
40,88533	209
40,89600	192
40,90667	168
40,91733	148
40,92800	123
40,93867	112
40,94933	98
40,96000	92
40,97067	75
40,98133	60
40,99200	50
41,00267	29
41,01333	21
41,02400	11
41,03467	8
41,04533	4
41,05600	-11
41,06667	-28
41,07733	-39
41,08800	-47
41,09867	-53
41,10933	-65
41,12000	-72
41,13067	-78
41,14133	-85
41,15200	-95
41,16267	-106
41,17333	-116
41,18400	-124
41,19467	-134
41,20533	-134
41,21600	-143
41,22667	-148
41,23733	-152
41,24800	-165
41,25867	-173
41,26933	-173
41,28000	-180
41,29067	-183
41,30133	-183
41,31200	-187
41,32267	-199
41,33333	-203
41,34400	-202
41,35467	-204
41,36533	-210
41,37600	-211
41,38667	-216
41,39733	-216
41,40800	-222
41,41867	-219
41,42933	-211
41,44000	-207
41,45067	-206
41,46133	-203
41,47200	-198
41,48267	-204
41,49333	-199
41,50400	-201
41,51467	-192
41,52533	-186
41,53600	-176
41,54667	-168
41,55733	-167
41,56800	-165
41,57867	-166
41,58933	-153
41,60000	-147
41,61067	-143
41,62133	-140
41,63200	-133
41,64267	-126
41,65333	-122
41,66400	-107
41,67467	-100
41,68533	-89
41,69600	-91
41,70667	-84
41,71733	-75
41,72800	-62
41,73867	-59
41,74933	-55
41,76000	-51
41,77067	-41
41,78133	-38
41,79200	-29
41,80267	-24
41,81333	-20
41,82400	-13
41,83467	-8
41,84533	1
41,85600	1
41,86667	7
41,87733	15
41,88800	24
41,89867	35
41,90933	43
41,92000	47
41,93067	56
41,94133	63
41,95200	61
41,96267	70
41,97333	73
41,98400	78
41,99467	87
42,00533	88
42,01600	97
42,02667	100
42,03733	104
42,04800	106
42,05867	104
42,06933	114
42,08000	114
42,09067	123
42,10133	127
42,11200	124
42,12267	128
42,13333	143
42,14400	141
42,15467	150
42,16533	149
42,17600	145
42,18667	144
42,19733	151
42,20800	152
42,21867	161
42,22933	161
42,24000	167
42,25067	174
42,26133	165
42,27200	168
42,28267	170
42,29333	166
42,30400	168
42,31467	171
42,32533	177
42,33600	187
42,34667	186
42,35733	175
42,36800	173
42,37867	180
42,38933	176
42,40000	189
42,41067	182
42,42133	180
42,43200	183
42,44267	183
42,45333	178
42,46400	193
42,47467	189
42,48533	186
42,49600	186
42,50667	184
42,51733	182
42,52800	179
42,53867	177
42,54933	182
42,56000	190
42,57067	179
42,58133	179
42,59200	193
42,60267	191
42,61333	186
42,62400	188
42,63467	184
42,64533	185
42,65600	194
42,66667	194
42,67733	196
42,68800	191
42,69867	187
42,70933	186
42,72000	187
42,73067	185
42,74133	187
42,75200	184
42,76267	187
42,77333	185
42,78400	188
42,79467	187
42,80533	183
42,81600	184
42,82667	186
42,83733	181
42,84800	173
42,85867	183
42,86933	180
42,88000	174
42,89067	173
42,90133	176
42,91200	177
42,92267	184
42,93333	170
42,94400	172
42,95467	176
42,96533	177
42,97600	172
42,98667	175
42,99733	178
43,00800	176
43,01867	170
43,02933	166
43,04000	164
43,05067	173
43,06133	160
43,07200	164
43,08267	166
43,09333	166
43,10400	167
43,11467	169
43,12533	166
43,13600	166
43,14667	169
43,15733	158
43,16800	159
43,17867	174
43,18933	164
43,20000	158
43,21067	160
43,22133	165
43,23200	166
43,24267	165
43,25333	166
43,26400	163
43,27467	163
43,28533	163
43,29600	168
43,30667	167
43,31733	169
43,32800	167
43,33867	164
43,34933	162
43,36000	155
43,37067	157
43,38133	153
43,39200	164
43,40267	163
43,41333	162
43,42400	159
43,43467	163
43,44533	170
43,45600	178
43,46667	173
43,47733	160
43,48800	158
43,49867	167
43,50933	168
43,52000	168
43,53067	168
43,54133	166
43,55200	162
43,56267	155
43,57333	149
43,58400	149
43,59467	159
43,60533	158
43,61600	162
43,62667	161
43,63733	161
43,64800	158
43,65867	160
43,66933	157
43,68000	158
43,69067	161
43,70133	157
43,71200	156
43,72267	162
43,73333	162
43,74400	160
43,75467	161
43,76533	158
43,77600	162
43,78667	160
43,79733	163
43,80800	161
43,81867	151
43,82933	152
43,84000	165
43,85067	153
43,86133	150
43,87200	146
43,88267	149
43,89333	156
43,90400	148
43,91467	140
43,92533	145
43,93600	147
43,94667	149
43,95733	147
43,96800	146
43,97867	146
43,98933	146
44,00000	145
44,01067	144
44,02133	141
44,03200	143
44,04267	149
44,05333	160
44,06400	151
44,07467	151
44,08533	156
44,09600	151
44,10667	142
44,11733	147
44,12800	148
44,13867	153
44,14933	150
44,16000	153
44,17067	157
44,18133	146
44,19200	153
44,20267	154
44,21333	145
44,22400	146
44,23467	145
44,24533	140
44,25600	145
44,26667	142
44,27733	145
44,28800	151
44,29867	147
44,30933	140
44,32000	143
44,33067	139
44,34133	140
44,35200	140
44,36267	137
44,37333	141
44,38400	153
44,39467	147
44,40533	130
44,41600	134
44,42667	134
44,43733	142
44,44800	133
44,45867	133
44,46933	141
44,48000	143
44,49067	138
44,50133	138
44,51200	142
44,52267	142
44,53333	141
44,54400	139
44,55467	137
44,56533	137
44,57600	136
44,58667	136
44,59733	128
44,60800	132
44,61867	133
44,62933	125
44,64000	136
44,65067	132
44,66133	135
44,67200	134
44,68267	129
44,69333	129
44,70400	133
44,71467	140
44,72533	134
44,73600	136
44,74667	132
44,75733	140
44,76800	134
44,77867	134
44,78933	138
44,80000	143
44,81067	147
44,82133	137
44,83200	136
44,84267	140
44,85333	144
44,86400	139
44,87467	137
44,88533	133
44,89600	133
44,90667	135
44,91733	130
44,92800	125
44,93867	131
44,94933	135
44,96000	128
44,97067	134
44,98133	137
44,99200	137
45,00267	131
45,01333	135
45,02400	125
45,03467	124
45,04533	127
45,05600	128
45,06667	134
45,07733	134
45,08800	130
45,09867	135
45,10933	124
45,12000	130
45,13067	124
45,14133	120
45,15200	127
45,16267	122
45,17333	125
45,18400	122
45,19467	123
45,20533	133
45,21600	127
45,22667	125
45,23733	129
45,24800	123
45,25867	125
45,26933	124
45,28000	125
45,29067	118
45,30133	118
45,31200	117
45,32267	119
45,33333	117
45,34400	117
45,35467	114
45,36533	116
45,37600	113
45,38667	114
45,39733	108
45,40800	102
45,41867	110
45,42933	113
45,44000	104
45,45067	104
45,46133	107
45,47200	109
45,48267	117
45,49333	111
45,50400	112
45,51467	115
45,52533	111
45,53600	111
45,54667	112
45,55733	114
45,56800	111
45,57867	116
45,58933	114
45,60000	117
45,61067	105
45,62133	106
45,63200	113
45,64267	113
45,65333	110
45,66400	109
45,67467	110
45,68533	99
45,69600	102
45,70667	104
45,71733	99
45,72800	105
45,73867	115
45,74933	115
45,76000	118
45,77067	111
45,78133	109
45,79200	113
45,80267	113
45,81333	122
45,82400	120
45,83467	115
45,84533	116
45,85600	108
45,86667	106
45,87733	112
45,88800	107
45,89867	109
45,90933	109
45,92000	106
45,93067	108
45,94133	103
45,95200	102
45,96267	102
45,97333	95
45,98400	104
45,99467	97
46,00533	106
46,01600	99
46,02667	94
46,03733	99
46,04800	103
46,05867	101
46,06933	96
46,08000	94
46,09067	96
46,10133	96
46,11200	97
46,12267	100
46,13333	88
46,14400	91
46,15467	93
46,16533	96
46,17600	94
46,18667	97
46,19733	92
46,20800	94
46,21867	102
46,22933	96
46,24000	91
46,25067	94
46,26133	102
46,27200	107
46,28267	104
46,29333	107
46,30400	98
46,31467	108
46,32533	104
46,33600	109
46,34667	99
46,35733	105
46,36800	95
46,37867	97
46,38933	100
46,40000	103
46,41067	102
46,42133	101
46,43200	98
46,44267	99
46,45333	101
46,46400	104
46,47467	104
46,48533	103
46,49600	92
46,50667	107
46,51733	106
46,52800	96
46,53867	98
46,54933	92
46,56000	91
46,57067	97
46,58133	100
46,59200	104
46,60267	101
46,61333	97
46,62400	94
46,63467	96
46,64533	96
46,65600	80
46,66667	86
46,67733	86
46,68800	87
46,69867	89
46,70933	89
46,72000	87
46,73067	80
46,74133	74
46,75200	74
46,76267	75
46,77333	75
46,78400	81
46,79467	77
46,80533	76
46,81600	81
46,82667	80
46,83733	86
46,84800	92
46,85867	83
46,86933	78
46,88000	78
46,89067	83
46,90133	82
46,91200	83
46,92267	81
46,93333	77
46,94400	77
46,95467	79
46,96533	72
46,97600	80
46,98667	82
46,99733	79
47,00800	75
47,01867	68
47,02933	73
47,04000	74
47,05067	74
47,06133	87
47,07200	83
47,08267	80
47,09333	70
47,10400	70
47,11467	80
47,12533	79
47,13600	79
47,14667	82
47,15733	80
47,16800	72
47,17867	77
47,18933	72
47,20000	71
47,21067	82
47,22133	78
47,23200	75
47,24267	76
47,25333	83
47,26400	71
47,27467	79
47,28533	75
47,29600	70
47,30667	68
47,31733	67
47,32800	65
47,33867	69
47,34933	71
47,36000	75
47,37067	71
47,38133	62
47,39200	64
47,40267	62
47,41333	71
47,42400	69
47,43467	68
47,44533	72
47,45600	77
47,46667	77
47,47733	73
47,48800	74
47,49867	69
47,50933	69
47,52000	74
47,53067	78
47,54133	73
47,55200	77
47,56267	78
47,57333	77
47,58400	81
47,59467	73
47,60533	79
47,61600	74
47,62667	81
47,63733	68
47,64800	64
47,65867	68
47,66933	74
47,68000	66
47,69067	66
47,70133	73
47,71200	69
47,72267	73
47,73333	62
47,74400	68
47,75467	75
47,76533	72
47,77600	73
47,78667	69
47,79733	66
47,80800	66
47,81867	64
47,82933	67
47,84000	68
47,85067	69
47,86133	62
47,87200	57
47,88267	59
47,89333	58
47,90400	60
47,91467	66
47,92533	62
47,93600	64
47,94667	64
47,95733	65
47,96800	60
47,97867	61
47,98933	60
48,00000	69
48,01067	70
48,02133	67
48,03200	73
48,04267	67
48,05333	65
48,06400	62
48,07467	66
48,08533	65
48,09600	62
48,10667	51
48,11733	53
48,12800	62
48,13867	56
48,14933	59
48,16000	57
48,17067	58
48,18133	55
48,19200	45
48,20267	52
48,21333	56
48,22400	58
48,23467	59
48,24533	61
48,25600	60
48,26667	58
48,27733	55
48,28800	50
48,29867	50
48,30933	55
48,32000	47
48,33067	50
48,34133	46
48,35200	53
48,36267	59
48,37333	56
48,38400	53
48,39467	47
48,40533	45
48,41600	48
48,42667	51
48,43733	51
48,44800	58
48,45867	58
48,46933	63
48,48000	64
48,49067	58
48,50133	59
48,51200	60
48,52267	56
48,53333	48
48,54400	43
48,55467	45
48,56533	48
48,57600	47
48,58667	49
48,59733	52
48,60800	45
48,61867	46
48,62933	44
48,64000	52
48,65067	48
48,66133	45
48,67200	43
48,68267	49
48,69333	47
48,70400	49
48,71467	54
48,72533	52
48,73600	48
48,74667	52
48,75733	48
48,76800	51
48,77867	46
48,78933	48
48,80000	47
48,81067	45
48,82133	44
48,83200	45
48,84267	46
48,85333	46
48,86400	47
48,87467	41
48,88533	45
48,89600	49
48,90667	48
48,91733	45
48,92800	46
48,93867	54
48,94933	56
48,96000	51
48,97067	52
48,98133	62
48,99200	57
49,00267	53
49,01333	43
49,02400	44
49,03467	43
49,04533	45
49,05600	40
49,06667	43
49,07733	37
49,08800	38
49,09867	33
49,10933	41
49,12000	51
49,13067	36
49,14133	35
49,15200	40
49,16267	39
49,17333	42
49,18400	35
49,19467	40
49,20533	43
49,21600	36
49,22667	37
49,23733	35
49,24800	40
49,25867	36
49,26933	35
49,28000	33
49,29067	40
49,30133	34
49,31200	38
49,32267	37
49,33333	34
49,34400	34
49,35467	36
49,36533	38
49,37600	47
49,38667	42
49,39733	44
49,40800	38
49,41867	37
49,42933	32
49,44000	36
49,45067	31
49,46133	34
49,47200	34
49,48267	39
49,49333	35
49,50400	31
49,51467	28
49,52533	32
49,53600	33
49,54667	32
49,55733	31
49,56800	23
49,57867	29
49,58933	32
49,60000	31
49,61067	33
49,62133	34
49,63200	31
49,64267	22
49,65333	29
49,66400	26
49,67467	23
49,68533	26
49,69600	23
49,70667	27
49,71733	24
49,72800	15
49,73867	19
49,74933	20
49,76000	24
49,77067	23
49,78133	16
49,79200	16
49,80267	17
49,81333	32
49,82400	32
49,83467	26
49,84533	24
49,85600	27
49,86667	30
49,87733	22
49,88800	24
49,89867	29
49,90933	29
49,92000	23
49,93067	26
49,94133	24
49,95200	26
49,96267	25
49,97333	31
49,98400	34
49,99467	32
50,00533	28


