[Header]
Application Name	LabSolutions
Version	5.73
Data File Name	C:\Users\Public\DADOS\Ricardo borges\RMBorges\26.02.25\CAFEINE.lcd
Output Date	26/02/2025
Output Time	21:10:35

[File Information]
Type	Data File
Generated	26/02/2025 20:20:08
Generated by	System Administrator
Modified	26/02/2025 21:10:34
Modified by	System Administrator

[Sample Information]
Operator Name	System Administrator
Acquired	26/02/2025 20:20:32
Sample Type	0:Unknown
Level	0
Sample Name	CAFEINE
Sample ID	CAFEINE
ISTD Amount1	1
ISTD Amount2	1
ISTD Amount3	1
ISTD Amount4	1
ISTD Amount5	1
ISTD Amount6	1
ISTD Amount7	1
ISTD Amount8	1
ISTD Amount9	1
ISTD Amount10	1
ISTD Amount11	1
ISTD Amount12	1
ISTD Amount13	1
ISTD Amount14	1
ISTD Amount15	1
ISTD Amount16	1
ISTD Amount17	1
ISTD Amount18	1
ISTD Amount19	1
ISTD Amount20	1
ISTD Amount21	1
ISTD Amount22	1
ISTD Amount23	1
ISTD Amount24	1
ISTD Amount25	1
ISTD Amount26	1
ISTD Amount27	1
ISTD Amount28	1
ISTD Amount29	1
ISTD Amount30	1
ISTD Amount31	1
ISTD Amount32	1
Sample Amount	1
Dilution Factor	1
Vial#	10
Injection Volume	10

[Original Files]
Data File	C:\Users\Public\DADOS\Ricardo borges\RMBorges\26.02.25\CAFEINE.lcd
Method File	C:\Users\Public\MÉTODOS\MÉTODOS HPLC AUTOMÁTICO\RICARDO BORGES\RMBorges\sciffee\experimental 1 - pool.lcm
Batch File	C:\Users\Public\DADOS\Ricardo borges\RMBorges\26.02.25\BATCH_RM_MIX POOL_26.02.2025.lcb
Report Format File	C:\LabSolutions\System\Default.lsr

[File Description]


[Configuration]
Instrument Name	HPLC analítico (automático)
Instrument #	1
Line #	1
# of Detectors	1
Detector ID	PDA
Detector Name	PDA
# of Channels	1

[Peak Table(PDA-Ch1)]
# of Peaks	15
Peak#	R.Time	I.Time	F.Time	Area	Height	A/H	Conc.	Mark	ID#	Name	k'	Plate #	Plate Ht.	Tailing	Resolution	Sep.Factor	Area Ratio	Height Ratio	Conc. %	Norm Conc.
1	1,669	1,493	1,835	101765	17025	5,977	0,000	   			0,000	1749	85,774	1,005	0,000	0,000	0	0	0,000	0,000
2	13,263	13,077	15,019	5545133	332483	16,678	0,000	   			6,947	16055	9,343	2,650	40,096	0,000	0	0	0,000	0,000
3	27,403	25,611	27,456	6158	26	238,445	0,000	   			15,420	160129	0,937	0,515	40,829	2,219	0	0	0,000	0,000
4	29,675	29,173	29,909	2066	89	23,178	0,000	   			16,781	76295	1,966	0,704	6,458	1,088	0	0	0,000	0,000
5	35,068	34,592	35,413	867076	114349	7,583	0,000	   			20,013	711061	0,211	0,000	18,097	1,193	0	0	0,000	0,000
6	35,485	35,413	35,552	115694	17845	6,483	0,000	 V 			20,262	266368	0,563	0,000	1,886	1,012	0	0	0,000	0,000
7	35,592	35,552	35,733	96227	12322	7,809	0,000	 V 			20,327	69461	2,159	0,000	0,263	1,003	0	0	0,000	0,000
8	35,849	35,733	35,979	101137	8517	11,874	0,000	 V 			20,481	75256	1,993	0,000	0,484	1,008	0	0	0,000	0,000
9	36,033	35,979	36,096	35791	5281	6,777	0,000	 V 			20,591	3894	38,520	0,000	0,130	1,005	0	0	0,000	0,000
10	36,333	36,096	36,469	115491	6497	17,775	0,000	 V 			20,771	24651	6,085	0,000	0,186	1,009	0	0	0,000	0,000
11	36,785	36,469	36,896	78729	3128	25,171	0,000	 V 			21,041	657	228,351	0,000	0,135	1,013	0	0	0,000	0,000
12	37,037	36,896	37,141	29975	2781	10,779	0,000	 V 			21,193	161294	0,930	0,000	0,083	1,007	0	0	0,000	0,000
13	37,227	37,141	37,376	10113	1194	8,470	0,000	 V 			21,307	50286	2,983	0,000	0,368	1,005	0	0	0,000	0,000
14	37,758	37,632	37,888	2567	334	7,686	0,000	   			21,624	474373	0,316	1,033	1,201	1,015	0	0	0,000	0,000
15	38,911	38,645	39,979	1080179	37350	28,921	0,000	   			22,315	334038	0,449	2,824	4,722	1,032	0	0	0,000	0,000

[Compound Results(PDA)]
# of IDs	0

[PDA Multi Chromatogram(Ch1)]
# of Points	      4689
Interval(msec)	640
Start Time(min)	0
End Time(min)	50,0053
Intensity Units	mAU
Intensity Multiplier	1
Type	MultiChrom
Wavelength(nm)	254
Bandwidth(nm)	4
R.Time (min)	Intensity
0,00000	0
0,01067	0
0,02133	0
0,03200	0
0,04267	0
0,05333	0
0,06400	0
0,07467	0
0,08533	0
0,09600	0
0,10667	0
0,11733	-2
0,12800	-3
0,13867	-3
0,14933	-9
0,16000	-10
0,17067	-12
0,18133	-6
0,19200	-7
0,20267	-6
0,21333	-8
0,22400	-16
0,23467	-14
0,24533	-9
0,25600	-7
0,26667	-9
0,27733	-13
0,28800	-23
0,29867	-20
0,30933	-22
0,32000	-18
0,33067	-12
0,34133	-18
0,35200	-19
0,36267	-22
0,37333	-15
0,38400	-16
0,39467	-21
0,40533	-30
0,41600	-28
0,42667	-32
0,43733	-24
0,44800	-23
0,45867	-24
0,46933	-20
0,48000	-20
0,49067	-24
0,50133	-29
0,51200	-25
0,52267	-19
0,53333	-26
0,54400	-25
0,55467	-30
0,56533	-24
0,57600	-32
0,58667	-30
0,59733	-33
0,60800	-33
0,61867	-35
0,62933	-35
0,64000	-39
0,65067	-41
0,66133	-37
0,67200	-33
0,68267	-40
0,69333	-30
0,70400	-38
0,71467	-40
0,72533	-38
0,73600	-39
0,74667	-41
0,75733	-34
0,76800	-37
0,77867	-45
0,78933	-42
0,80000	-39
0,81067	-36
0,82133	-44
0,83200	-50
0,84267	-48
0,85333	-50
0,86400	-45
0,87467	-41
0,88533	-47
0,89600	-43
0,90667	-41
0,91733	-42
0,92800	-46
0,93867	-49
0,94933	-45
0,96000	-43
0,97067	-39
0,98133	-38
0,99200	-35
1,00267	-46
1,01333	-44
1,02400	-47
1,03467	-45
1,04533	-45
1,05600	-42
1,06667	-42
1,07733	-50
1,08800	-50
1,09867	-47
1,10933	-50
1,12000	-46
1,13067	-47
1,14133	-50
1,15200	-45
1,16267	-40
1,17333	-41
1,18400	-32
1,19467	-32
1,20533	-35
1,21600	-34
1,22667	-35
1,23733	-36
1,24800	-35
1,25867	-40
1,26933	-38
1,28000	-37
1,29067	-39
1,30133	-44
1,31200	-38
1,32267	-37
1,33333	-42
1,34400	-36
1,35467	-32
1,36533	-28
1,37600	-27
1,38667	-28
1,39733	-31
1,40800	-19
1,41867	-21
1,42933	-13
1,44000	-13
1,45067	-6
1,46133	-10
1,47200	-17
1,48267	-13
1,49333	-14
1,50400	-3
1,51467	-6
1,52533	-4
1,53600	4
1,54667	29
1,55733	49
1,56800	74
1,57867	98
1,58933	111
1,60000	107
1,61067	89
1,62133	80
1,63200	545
1,64267	4269
1,65333	10246
1,66400	13280
1,67467	13149
1,68533	11726
1,69600	10106
1,70667	8431
1,71733	6455
1,72800	4162
1,73867	1762
1,74933	-449
1,76000	-2318
1,77067	-3738
1,78133	-4696
1,79200	-5244
1,80267	-5635
1,81333	-6142
1,82400	-6779
1,83467	-7269
1,84533	-7409
1,85600	-7099
1,86667	-6365
1,87733	-5343
1,88800	-4208
1,89867	-3129
1,90933	-2213
1,92000	-1508
1,93067	-994
1,94133	-644
1,95200	-419
1,96267	-267
1,97333	-175
1,98400	-117
1,99467	-84
2,00533	-56
2,01600	-41
2,02667	-30
2,03733	-22
2,04800	-17
2,05867	-18
2,06933	-16
2,08000	-16
2,09067	-18
2,10133	-19
2,11200	-17
2,12267	-19
2,13333	-20
2,14400	-11
2,15467	-15
2,16533	-18
2,17600	-21
2,18667	-24
2,19733	-23
2,20800	-25
2,21867	-17
2,22933	-13
2,24000	-16
2,25067	-14
2,26133	-15
2,27200	-9
2,28267	-4
2,29333	-12
2,30400	-3
2,31467	-9
2,32533	-12
2,33600	-14
2,34667	-12
2,35733	-19
2,36800	-10
2,37867	-13
2,38933	-3
2,40000	-10
2,41067	-11
2,42133	-19
2,43200	-12
2,44267	-10
2,45333	-3
2,46400	-7
2,47467	-15
2,48533	-10
2,49600	-15
2,50667	-13
2,51733	-8
2,52800	-15
2,53867	-17
2,54933	-12
2,56000	-7
2,57067	-12
2,58133	-10
2,59200	-11
2,60267	-16
2,61333	-17
2,62400	-23
2,63467	-29
2,64533	-51
2,65600	-95
2,66667	-152
2,67733	-236
2,68800	-330
2,69867	-424
2,70933	-497
2,72000	-550
2,73067	-570
2,74133	-568
2,75200	-536
2,76267	-490
2,77333	-432
2,78400	-367
2,79467	-296
2,80533	-229
2,81600	-171
2,82667	-124
2,83733	-81
2,84800	-60
2,85867	-28
2,86933	-21
2,88000	-19
2,89067	-11
2,90133	-4
2,91200	-4
2,92267	-7
2,93333	-10
2,94400	-4
2,95467	-1
2,96533	-6
2,97600	1
2,98667	6
2,99733	-2
3,00800	4
3,01867	-1
3,02933	8
3,04000	8
3,05067	18
3,06133	17
3,07200	16
3,08267	16
3,09333	15
3,10400	23
3,11467	19
3,12533	13
3,13600	11
3,14667	8
3,15733	11
3,16800	9
3,17867	11
3,18933	17
3,20000	21
3,21067	17
3,22133	16
3,23200	14
3,24267	7
3,25333	7
3,26400	3
3,27467	4
3,28533	2
3,29600	-3
3,30667	1
3,31733	7
3,32800	7
3,33867	11
3,34933	8
3,36000	4
3,37067	0
3,38133	6
3,39200	3
3,40267	3
3,41333	5
3,42400	7
3,43467	2
3,44533	10
3,45600	19
3,46667	37
3,47733	48
3,48800	66
3,49867	66
3,50933	53
3,52000	31
3,53067	-2
3,54133	-18
3,55200	-36
3,56267	-53
3,57333	-57
3,58400	-52
3,59467	-49
3,60533	-44
3,61600	-39
3,62667	-35
3,63733	-35
3,64800	-31
3,65867	-31
3,66933	-23
3,68000	-12
3,69067	-2
3,70133	3
3,71200	7
3,72267	23
3,73333	21
3,74400	18
3,75467	23
3,76533	22
3,77600	26
3,78667	34
3,79733	36
3,80800	36
3,81867	37
3,82933	34
3,84000	37
3,85067	35
3,86133	33
3,87200	37
3,88267	45
3,89333	48
3,90400	44
3,91467	42
3,92533	34
3,93600	38
3,94667	30
3,95733	30
3,96800	40
3,97867	41
3,98933	44
4,00000	46
4,01067	39
4,02133	40
4,03200	43
4,04267	38
4,05333	37
4,06400	40
4,07467	33
4,08533	42
4,09600	38
4,10667	27
4,11733	28
4,12800	33
4,13867	39
4,14933	38
4,16000	35
4,17067	33
4,18133	30
4,19200	28
4,20267	29
4,21333	27
4,22400	35
4,23467	33
4,24533	37
4,25600	32
4,26667	37
4,27733	38
4,28800	29
4,29867	37
4,30933	38
4,32000	38
4,33067	40
4,34133	34
4,35200	38
4,36267	35
4,37333	42
4,38400	38
4,39467	45
4,40533	39
4,41600	48
4,42667	43
4,43733	46
4,44800	53
4,45867	41
4,46933	41
4,48000	45
4,49067	51
4,50133	52
4,51200	52
4,52267	56
4,53333	51
4,54400	58
4,55467	60
4,56533	52
4,57600	54
4,58667	54
4,59733	55
4,60800	62
4,61867	72
4,62933	73
4,64000	67
4,65067	73
4,66133	78
4,67200	80
4,68267	76
4,69333	82
4,70400	83
4,71467	89
4,72533	90
4,73600	97
4,74667	98
4,75733	91
4,76800	99
4,77867	106
4,78933	107
4,80000	116
4,81067	115
4,82133	120
4,83200	117
4,84267	114
4,85333	121
4,86400	127
4,87467	126
4,88533	131
4,89600	131
4,90667	122
4,91733	133
4,92800	129
4,93867	133
4,94933	132
4,96000	145
4,97067	144
4,98133	151
4,99200	150
5,00267	152
5,01333	152
5,02400	157
5,03467	158
5,04533	166
5,05600	167
5,06667	180
5,07733	177
5,08800	178
5,09867	184
5,10933	191
5,12000	192
5,13067	194
5,14133	190
5,15200	191
5,16267	191
5,17333	191
5,18400	197
5,19467	203
5,20533	204
5,21600	207
5,22667	211
5,23733	219
5,24800	216
5,25867	221
5,26933	220
5,28000	230
5,29067	236
5,30133	229
5,31200	231
5,32267	244
5,33333	242
5,34400	248
5,35467	250
5,36533	258
5,37600	254
5,38667	263
5,39733	262
5,40800	264
5,41867	266
5,42933	268
5,44000	274
5,45067	279
5,46133	278
5,47200	284
5,48267	290
5,49333	294
5,50400	299
5,51467	302
5,52533	302
5,53600	303
5,54667	305
5,55733	307
5,56800	315
5,57867	313
5,58933	320
5,60000	323
5,61067	325
5,62133	327
5,63200	331
5,64267	331
5,65333	338
5,66400	342
5,67467	356
5,68533	357
5,69600	360
5,70667	358
5,71733	361
5,72800	368
5,73867	371
5,74933	371
5,76000	373
5,77067	387
5,78133	385
5,79200	385
5,80267	388
5,81333	397
5,82400	399
5,83467	397
5,84533	399
5,85600	397
5,86667	401
5,87733	412
5,88800	411
5,89867	409
5,90933	408
5,92000	409
5,93067	415
5,94133	411
5,95200	413
5,96267	424
5,97333	413
5,98400	413
5,99467	429
6,00533	430
6,01600	431
6,02667	428
6,03733	433
6,04800	432
6,05867	444
6,06933	444
6,08000	447
6,09067	457
6,10133	453
6,11200	456
6,12267	458
6,13333	467
6,14400	460
6,15467	462
6,16533	466
6,17600	477
6,18667	470
6,19733	475
6,20800	473
6,21867	477
6,22933	477
6,24000	478
6,25067	479
6,26133	485
6,27200	491
6,28267	492
6,29333	491
6,30400	495
6,31467	495
6,32533	498
6,33600	508
6,34667	519
6,35733	516
6,36800	530
6,37867	534
6,38933	544
6,40000	553
6,41067	563
6,42133	568
6,43200	576
6,44267	580
6,45333	574
6,46400	580
6,47467	581
6,48533	587
6,49600	587
6,50667	600
6,51733	598
6,52800	592
6,53867	583
6,54933	579
6,56000	567
6,57067	573
6,58133	577
6,59200	578
6,60267	578
6,61333	574
6,62400	574
6,63467	573
6,64533	575
6,65600	577
6,66667	577
6,67733	574
6,68800	571
6,69867	579
6,70933	587
6,72000	596
6,73067	596
6,74133	596
6,75200	600
6,76267	611
6,77333	613
6,78400	611
6,79467	614
6,80533	618
6,81600	630
6,82667	624
6,83733	625
6,84800	629
6,85867	624
6,86933	631
6,88000	636
6,89067	641
6,90133	639
6,91200	648
6,92267	649
6,93333	652
6,94400	652
6,95467	648
6,96533	649
6,97600	660
6,98667	670
6,99733	672
7,00800	672
7,01867	683
7,02933	677
7,04000	678
7,05067	677
7,06133	674
7,07200	682
7,08267	683
7,09333	687
7,10400	687
7,11467	686
7,12533	694
7,13600	690
7,14667	693
7,15733	698
7,16800	702
7,17867	711
7,18933	704
7,20000	703
7,21067	703
7,22133	706
7,23200	706
7,24267	712
7,25333	714
7,26400	721
7,27467	725
7,28533	724
7,29600	734
7,30667	733
7,31733	742
7,32800	734
7,33867	734
7,34933	736
7,36000	738
7,37067	741
7,38133	743
7,39200	747
7,40267	748
7,41333	747
7,42400	755
7,43467	759
7,44533	753
7,45600	759
7,46667	763
7,47733	766
7,48800	760
7,49867	762
7,50933	774
7,52000	773
7,53067	786
7,54133	780
7,55200	784
7,56267	780
7,57333	784
7,58400	792
7,59467	794
7,60533	798
7,61600	803
7,62667	797
7,63733	805
7,64800	804
7,65867	809
7,66933	810
7,68000	818
7,69067	819
7,70133	815
7,71200	820
7,72267	823
7,73333	826
7,74400	826
7,75467	826
7,76533	836
7,77600	827
7,78667	837
7,79733	843
7,80800	841
7,81867	848
7,82933	846
7,84000	848
7,85067	854
7,86133	859
7,87200	855
7,88267	863
7,89333	866
7,90400	868
7,91467	873
7,92533	872
7,93600	871
7,94667	871
7,95733	878
7,96800	874
7,97867	875
7,98933	882
8,00000	884
8,01067	889
8,02133	895
8,03200	895
8,04267	897
8,05333	908
8,06400	904
8,07467	901
8,08533	902
8,09600	904
8,10667	911
8,11733	915
8,12800	916
8,13867	919
8,14933	929
8,16000	927
8,17067	926
8,18133	930
8,19200	933
8,20267	943
8,21333	947
8,22400	949
8,23467	946
8,24533	950
8,25600	949
8,26667	956
8,27733	950
8,28800	951
8,29867	952
8,30933	960
8,32000	965
8,33067	971
8,34133	967
8,35200	971
8,36267	973
8,37333	982
8,38400	976
8,39467	983
8,40533	982
8,41600	986
8,42667	987
8,43733	989
8,44800	997
8,45867	1003
8,46933	1000
8,48000	1000
8,49067	1002
8,50133	1011
8,51200	1018
8,52267	1022
8,53333	1033
8,54400	1037
8,55467	1038
8,56533	1041
8,57600	1040
8,58667	1042
8,59733	1043
8,60800	1049
8,61867	1055
8,62933	1062
8,64000	1063
8,65067	1060
8,66133	1062
8,67200	1069
8,68267	1067
8,69333	1059
8,70400	1077
8,71467	1080
8,72533	1082
8,73600	1079
8,74667	1085
8,75733	1086
8,76800	1090
8,77867	1091
8,78933	1098
8,80000	1102
8,81067	1107
8,82133	1106
8,83200	1113
8,84267	1119
8,85333	1120
8,86400	1127
8,87467	1134
8,88533	1144
8,89600	1156
8,90667	1162
8,91733	1155
8,92800	1163
8,93867	1168
8,94933	1177
8,96000	1189
8,97067	1195
8,98133	1199
8,99200	1209
9,00267	1211
9,01333	1214
9,02400	1219
9,03467	1218
9,04533	1209
9,05600	1212
9,06667	1215
9,07733	1212
9,08800	1205
9,09867	1213
9,10933	1211
9,12000	1212
9,13067	1213
9,14133	1206
9,15200	1204
9,16267	1204
9,17333	1207
9,18400	1206
9,19467	1209
9,20533	1208
9,21600	1209
9,22667	1213
9,23733	1214
9,24800	1210
9,25867	1213
9,26933	1210
9,28000	1207
9,29067	1217
9,30133	1210
9,31200	1217
9,32267	1220
9,33333	1219
9,34400	1225
9,35467	1230
9,36533	1223
9,37600	1232
9,38667	1241
9,39733	1245
9,40800	1240
9,41867	1241
9,42933	1240
9,44000	1250
9,45067	1257
9,46133	1257
9,47200	1262
9,48267	1271
9,49333	1277
9,50400	1283
9,51467	1282
9,52533	1292
9,53600	1293
9,54667	1301
9,55733	1308
9,56800	1315
9,57867	1320
9,58933	1321
9,60000	1324
9,61067	1329
9,62133	1332
9,63200	1332
9,64267	1324
9,65333	1329
9,66400	1337
9,67467	1335
9,68533	1341
9,69600	1339
9,70667	1339
9,71733	1342
9,72800	1339
9,73867	1341
9,74933	1343
9,76000	1351
9,77067	1342
9,78133	1350
9,79200	1352
9,80267	1348
9,81333	1348
9,82400	1354
9,83467	1352
9,84533	1344
9,85600	1358
9,86667	1358
9,87733	1363
9,88800	1366
9,89867	1375
9,90933	1370
9,92000	1376
9,93067	1374
9,94133	1382
9,95200	1382
9,96267	1391
9,97333	1387
9,98400	1393
9,99467	1394
10,00533	1394
10,01600	1391
10,02667	1405
10,03733	1410
10,04800	1409
10,05867	1412
10,06933	1416
10,08000	1417
10,09067	1414
10,10133	1417
10,11200	1419
10,12267	1431
10,13333	1434
10,14400	1438
10,15467	1439
10,16533	1442
10,17600	1442
10,18667	1442
10,19733	1453
10,20800	1455
10,21867	1456
10,22933	1456
10,24000	1456
10,25067	1464
10,26133	1471
10,27200	1473
10,28267	1474
10,29333	1477
10,30400	1478
10,31467	1472
10,32533	1479
10,33600	1489
10,34667	1495
10,35733	1502
10,36800	1502
10,37867	1502
10,38933	1499
10,40000	1497
10,41067	1508
10,42133	1504
10,43200	1509
10,44267	1520
10,45333	1527
10,46400	1528
10,47467	1528
10,48533	1528
10,49600	1520
10,50667	1523
10,51733	1527
10,52800	1533
10,53867	1537
10,54933	1546
10,56000	1540
10,57067	1544
10,58133	1551
10,59200	1545
10,60267	1549
10,61333	1555
10,62400	1558
10,63467	1560
10,64533	1567
10,65600	1564
10,66667	1570
10,67733	1577
10,68800	1582
10,69867	1588
10,70933	1593
10,72000	1586
10,73067	1594
10,74133	1593
10,75200	1594
10,76267	1605
10,77333	1603
10,78400	1598
10,79467	1609
10,80533	1619
10,81600	1616
10,82667	1628
10,83733	1630
10,84800	1634
10,85867	1639
10,86933	1631
10,88000	1638
10,89067	1640
10,90133	1644
10,91200	1651
10,92267	1656
10,93333	1655
10,94400	1653
10,95467	1657
10,96533	1656
10,97600	1668
10,98667	1674
10,99733	1677
11,00800	1679
11,01867	1686
11,02933	1681
11,04000	1690
11,05067	1698
11,06133	1694
11,07200	1702
11,08267	1696
11,09333	1716
11,10400	1712
11,11467	1709
11,12533	1715
11,13600	1724
11,14667	1731
11,15733	1732
11,16800	1740
11,17867	1740
11,18933	1742
11,20000	1743
11,21067	1749
11,22133	1746
11,23200	1750
11,24267	1756
11,25333	1761
11,26400	1769
11,27467	1767
11,28533	1766
11,29600	1775
11,30667	1776
11,31733	1782
11,32800	1784
11,33867	1787
11,34933	1785
11,36000	1791
11,37067	1799
11,38133	1800
11,39200	1802
11,40267	1801
11,41333	1812
11,42400	1820
11,43467	1815
11,44533	1826
11,45600	1821
11,46667	1824
11,47733	1819
11,48800	1821
11,49867	1824
11,50933	1827
11,52000	1832
11,53067	1836
11,54133	1841
11,55200	1845
11,56267	1841
11,57333	1852
11,58400	1857
11,59467	1859
11,60533	1863
11,61600	1864
11,62667	1869
11,63733	1878
11,64800	1882
11,65867	1876
11,66933	1878
11,68000	1876
11,69067	1889
11,70133	1882
11,71200	1885
11,72267	1891
11,73333	1890
11,74400	1896
11,75467	1904
11,76533	1909
11,77600	1910
11,78667	1905
11,79733	1905
11,80800	1920
11,81867	1917
11,82933	1922
11,84000	1929
11,85067	1933
11,86133	1938
11,87200	1940
11,88267	1950
11,89333	1956
11,90400	1956
11,91467	1957
11,92533	1959
11,93600	1964
11,94667	1963
11,95733	1967
11,96800	1975
11,97867	1972
11,98933	1976
12,00000	1979
12,01067	1988
12,02133	1988
12,03200	1988
12,04267	1994
12,05333	1999
12,06400	2005
12,07467	1999
12,08533	2003
12,09600	2006
12,10667	2010
12,11733	2009
12,12800	2018
12,13867	2032
12,14933	2035
12,16000	2037
12,17067	2045
12,18133	2046
12,19200	2061
12,20267	2063
12,21333	2067
12,22400	2071
12,23467	2070
12,24533	2080
12,25600	2082
12,26667	2092
12,27733	2093
12,28800	2092
12,29867	2093
12,30933	2090
12,32000	2095
12,33067	2100
12,34133	2094
12,35200	2100
12,36267	2102
12,37333	2101
12,38400	2106
12,39467	2107
12,40533	2109
12,41600	2108
12,42667	2115
12,43733	2122
12,44800	2128
12,45867	2127
12,46933	2126
12,48000	2134
12,49067	2136
12,50133	2149
12,51200	2147
12,52267	2159
12,53333	2159
12,54400	2158
12,55467	2162
12,56533	2169
12,57600	2165
12,58667	2168
12,59733	2178
12,60800	2179
12,61867	2184
12,62933	2182
12,64000	2185
12,65067	2189
12,66133	2196
12,67200	2197
12,68267	2209
12,69333	2206
12,70400	2210
12,71467	2214
12,72533	2220
12,73600	2225
12,74667	2225
12,75733	2228
12,76800	2231
12,77867	2227
12,78933	2236
12,80000	2241
12,81067	2251
12,82133	2253
12,83200	2258
12,84267	2261
12,85333	2267
12,86400	2267
12,87467	2268
12,88533	2273
12,89600	2283
12,90667	2288
12,91733	2287
12,92800	2297
12,93867	2302
12,94933	2299
12,96000	2305
12,97067	2309
12,98133	2320
12,99200	2311
13,00267	2317
13,01333	2326
13,02400	2327
13,03467	2331
13,04533	2334
13,05600	2346
13,06667	2349
13,07733	2353
13,08800	2382
13,09867	2471
13,10933	2776
13,12000	3733
13,13067	6478
13,14133	13225
13,15200	27478
13,16267	52332
13,17333	88875
13,18400	134145
13,19467	182913
13,20533	228952
13,21600	268012
13,22667	297786
13,23733	318127
13,24800	329993
13,25867	334959
13,26933	334613
13,28000	330325
13,29067	323138
13,30133	313933
13,31200	303255
13,32267	291596
13,33333	279237
13,34400	266517
13,35467	253584
13,36533	240680
13,37600	227847
13,38667	215287
13,39733	203019
13,40800	191180
13,41867	179727
13,42933	168755
13,44000	158244
13,45067	148253
13,46133	138746
13,47200	129721
13,48267	121212
13,49333	113161
13,50400	105612
13,51467	98473
13,52533	91787
13,53600	85506
13,54667	79645
13,55733	74165
13,56800	69046
13,57867	64271
13,58933	59839
13,60000	55700
13,61067	51865
13,62133	48297
13,63200	44993
13,64267	41938
13,65333	39104
13,66400	36501
13,67467	34079
13,68533	31854
13,69600	29787
13,70667	27896
13,71733	26141
13,72800	24536
13,73867	23054
13,74933	21683
13,76000	20424
13,77067	19268
13,78133	18194
13,79200	17211
13,80267	16292
13,81333	15449
13,82400	14677
13,83467	13965
13,84533	13309
13,85600	12694
13,86667	12129
13,87733	11612
13,88800	11125
13,89867	10676
13,90933	10257
13,92000	9877
13,93067	9525
13,94133	9185
13,95200	8877
13,96267	8582
13,97333	8308
13,98400	8052
13,99467	7823
14,00533	7601
14,01600	7390
14,02667	7202
14,03733	7012
14,04800	6839
14,05867	6676
14,06933	6527
14,08000	6381
14,09067	6259
14,10133	6125
14,11200	6000
14,12267	5887
14,13333	5785
14,14400	5673
14,15467	5578
14,16533	5489
14,17600	5398
14,18667	5314
14,19733	5236
14,20800	5172
14,21867	5096
14,22933	5032
14,24000	4962
14,25067	4903
14,26133	4839
14,27200	4793
14,28267	4736
14,29333	4687
14,30400	4638
14,31467	4600
14,32533	4545
14,33600	4513
14,34667	4466
14,35733	4430
14,36800	4392
14,37867	4350
14,38933	4328
14,40000	4285
14,41067	4257
14,42133	4222
14,43200	4197
14,44267	4175
14,45333	4159
14,46400	4133
14,47467	4110
14,48533	4082
14,49600	4055
14,50667	4045
14,51733	4023
14,52800	3998
14,53867	3982
14,54933	3967
14,56000	3947
14,57067	3930
14,58133	3912
14,59200	3904
14,60267	3889
14,61333	3884
14,62400	3873
14,63467	3855
14,64533	3847
14,65600	3829
14,66667	3816
14,67733	3812
14,68800	3805
14,69867	3787
14,70933	3780
14,72000	3767
14,73067	3761
14,74133	3750
14,75200	3741
14,76267	3742
14,77333	3734
14,78400	3731
14,79467	3727
14,80533	3713
14,81600	3699
14,82667	3708
14,83733	3704
14,84800	3693
14,85867	3692
14,86933	3687
14,88000	3679
14,89067	3675
14,90133	3672
14,91200	3678
14,92267	3665
14,93333	3660
14,94400	3653
14,95467	3652
14,96533	3656
14,97600	3651
14,98667	3648
14,99733	3641
15,00800	3631
15,01867	3637
15,02933	3641
15,04000	3642
15,05067	3635
15,06133	3628
15,07200	3630
15,08267	3633
15,09333	3626
15,10400	3630
15,11467	3628
15,12533	3625
15,13600	3625
15,14667	3619
15,15733	3624
15,16800	3619
15,17867	3614
15,18933	3617
15,20000	3618
15,21067	3616
15,22133	3618
15,23200	3615
15,24267	3613
15,25333	3621
15,26400	3627
15,27467	3630
15,28533	3618
15,29600	3625
15,30667	3621
15,31733	3620
15,32800	3627
15,33867	3631
15,34933	3628
15,36000	3626
15,37067	3630
15,38133	3633
15,39200	3630
15,40267	3625
15,41333	3624
15,42400	3633
15,43467	3625
15,44533	3626
15,45600	3639
15,46667	3633
15,47733	3631
15,48800	3637
15,49867	3634
15,50933	3640
15,52000	3648
15,53067	3645
15,54133	3650
15,55200	3650
15,56267	3660
15,57333	3661
15,58400	3659
15,59467	3653
15,60533	3652
15,61600	3666
15,62667	3662
15,63733	3660
15,64800	3663
15,65867	3668
15,66933	3673
15,68000	3676
15,69067	3674
15,70133	3678
15,71200	3679
15,72267	3679
15,73333	3681
15,74400	3684
15,75467	3686
15,76533	3683
15,77600	3688
15,78667	3691
15,79733	3689
15,80800	3692
15,81867	3696
15,82933	3696
15,84000	3699
15,85067	3708
15,86133	3708
15,87200	3711
15,88267	3714
15,89333	3718
15,90400	3721
15,91467	3725
15,92533	3729
15,93600	3734
15,94667	3735
15,95733	3736
15,96800	3729
15,97867	3745
15,98933	3740
16,00000	3746
16,01067	3752
16,02133	3746
16,03200	3757
16,04267	3746
16,05333	3753
16,06400	3762
16,07467	3764
16,08533	3766
16,09600	3775
16,10667	3779
16,11733	3781
16,12800	3779
16,13867	3781
16,14933	3776
16,16000	3791
16,17067	3793
16,18133	3793
16,19200	3789
16,20267	3802
16,21333	3811
16,22400	3810
16,23467	3806
16,24533	3814
16,25600	3822
16,26667	3815
16,27733	3813
16,28800	3826
16,29867	3829
16,30933	3831
16,32000	3837
16,33067	3842
16,34133	3845
16,35200	3849
16,36267	3855
16,37333	3853
16,38400	3853
16,39467	3855
16,40533	3855
16,41600	3863
16,42667	3873
16,43733	3874
16,44800	3877
16,45867	3876
16,46933	3886
16,48000	3886
16,49067	3891
16,50133	3890
16,51200	3896
16,52267	3902
16,53333	3908
16,54400	3914
16,55467	3907
16,56533	3917
16,57600	3920
16,58667	3933
16,59733	3934
16,60800	3936
16,61867	3943
16,62933	3950
16,64000	3946
16,65067	3951
16,66133	3948
16,67200	3962
16,68267	3963
16,69333	3969
16,70400	3966
16,71467	3970
16,72533	3971
16,73600	3975
16,74667	3981
16,75733	3989
16,76800	3994
16,77867	3996
16,78933	4005
16,80000	4005
16,81067	4005
16,82133	4009
16,83200	4018
16,84267	4022
16,85333	4028
16,86400	4034
16,87467	4031
16,88533	4035
16,89600	4033
16,90667	4043
16,91733	4040
16,92800	4046
16,93867	4048
16,94933	4054
16,96000	4062
16,97067	4061
16,98133	4063
16,99200	4067
17,00267	4078
17,01333	4082
17,02400	4086
17,03467	4085
17,04533	4091
17,05600	4101
17,06667	4100
17,07733	4102
17,08800	4104
17,09867	4104
17,10933	4113
17,12000	4117
17,13067	4118
17,14133	4126
17,15200	4129
17,16267	4132
17,17333	4140
17,18400	4139
17,19467	4145
17,20533	4154
17,21600	4159
17,22667	4160
17,23733	4155
17,24800	4164
17,25867	4171
17,26933	4171
17,28000	4173
17,29067	4184
17,30133	4186
17,31200	4190
17,32267	4199
17,33333	4204
17,34400	4207
17,35467	4214
17,36533	4212
17,37600	4218
17,38667	4225
17,39733	4221
17,40800	4223
17,41867	4227
17,42933	4236
17,44000	4239
17,45067	4251
17,46133	4253
17,47200	4253
17,48267	4265
17,49333	4267
17,50400	4267
17,51467	4267
17,52533	4267
17,53600	4272
17,54667	4286
17,55733	4282
17,56800	4283
17,57867	4295
17,58933	4296
17,60000	4303
17,61067	4308
17,62133	4311
17,63200	4308
17,64267	4321
17,65333	4318
17,66400	4319
17,67467	4324
17,68533	4328
17,69600	4332
17,70667	4342
17,71733	4338
17,72800	4336
17,73867	4341
17,74933	4354
17,76000	4348
17,77067	4358
17,78133	4357
17,79200	4360
17,80267	4353
17,81333	4362
17,82400	4364
17,83467	4372
17,84533	4375
17,85600	4374
17,86667	4380
17,87733	4386
17,88800	4395
17,89867	4403
17,90933	4407
17,92000	4416
17,93067	4422
17,94133	4431
17,95200	4438
17,96267	4439
17,97333	4448
17,98400	4447
17,99467	4455
18,00533	4461
18,01600	4466
18,02667	4473
18,03733	4473
18,04800	4475
18,05867	4478
18,06933	4479
18,08000	4481
18,09067	4487
18,10133	4494
18,11200	4501
18,12267	4510
18,13333	4514
18,14400	4521
18,15467	4523
18,16533	4523
18,17600	4528
18,18667	4534
18,19733	4537
18,20800	4546
18,21867	4544
18,22933	4548
18,24000	4548
18,25067	4548
18,26133	4563
18,27200	4562
18,28267	4557
18,29333	4566
18,30400	4574
18,31467	4579
18,32533	4580
18,33600	4590
18,34667	4597
18,35733	4600
18,36800	4603
18,37867	4609
18,38933	4612
18,40000	4615
18,41067	4628
18,42133	4624
18,43200	4622
18,44267	4633
18,45333	4640
18,46400	4644
18,47467	4653
18,48533	4655
18,49600	4662
18,50667	4665
18,51733	4657
18,52800	4665
18,53867	4669
18,54933	4675
18,56000	4694
18,57067	4698
18,58133	4697
18,59200	4705
18,60267	4704
18,61333	4695
18,62400	4706
18,63467	4706
18,64533	4713
18,65600	4723
18,66667	4731
18,67733	4735
18,68800	4735
18,69867	4746
18,70933	4752
18,72000	4748
18,73067	4759
18,74133	4758
18,75200	4770
18,76267	4772
18,77333	4782
18,78400	4782
18,79467	4786
18,80533	4788
18,81600	4782
18,82667	4789
18,83733	4796
18,84800	4795
18,85867	4805
18,86933	4804
18,88000	4808
18,89067	4805
18,90133	4807
18,91200	4808
18,92267	4810
18,93333	4817
18,94400	4820
18,95467	4829
18,96533	4829
18,97600	4839
18,98667	4843
18,99733	4836
19,00800	4846
19,01867	4854
19,02933	4864
19,04000	4871
19,05067	4870
19,06133	4875
19,07200	4879
19,08267	4888
19,09333	4898
19,10400	4903
19,11467	4904
19,12533	4904
19,13600	4916
19,14667	4914
19,15733	4924
19,16800	4927
19,17867	4929
19,18933	4931
19,20000	4939
19,21067	4940
19,22133	4947
19,23200	4947
19,24267	4946
19,25333	4952
19,26400	4953
19,27467	4950
19,28533	4950
19,29600	4962
19,30667	4966
19,31733	4967
19,32800	4972
19,33867	4983
19,34933	4989
19,36000	4992
19,37067	4996
19,38133	5002
19,39200	5004
19,40267	5005
19,41333	5002
19,42400	5010
19,43467	5015
19,44533	5028
19,45600	5034
19,46667	5038
19,47733	5034
19,48800	5046
19,49867	5057
19,50933	5061
19,52000	5065
19,53067	5061
19,54133	5069
19,55200	5077
19,56267	5083
19,57333	5091
19,58400	5095
19,59467	5098
19,60533	5094
19,61600	5104
19,62667	5104
19,63733	5104
19,64800	5110
19,65867	5110
19,66933	5112
19,68000	5115
19,69067	5116
19,70133	5121
19,71200	5126
19,72267	5131
19,73333	5136
19,74400	5134
19,75467	5140
19,76533	5139
19,77600	5145
19,78667	5149
19,79733	5153
19,80800	5155
19,81867	5167
19,82933	5177
19,84000	5181
19,85067	5180
19,86133	5188
19,87200	5191
19,88267	5196
19,89333	5199
19,90400	5202
19,91467	5206
19,92533	5206
19,93600	5218
19,94667	5221
19,95733	5227
19,96800	5234
19,97867	5232
19,98933	5240
20,00000	5237
20,01067	5238
20,02133	5243
20,03200	5256
20,04267	5264
20,05333	5266
20,06400	5266
20,07467	5269
20,08533	5281
20,09600	5284
20,10667	5285
20,11733	5291
20,12800	5294
20,13867	5303
20,14933	5307
20,16000	5313
20,17067	5310
20,18133	5308
20,19200	5325
20,20267	5328
20,21333	5331
20,22400	5329
20,23467	5338
20,24533	5350
20,25600	5356
20,26667	5354
20,27733	5360
20,28800	5361
20,29867	5364
20,30933	5372
20,32000	5377
20,33067	5374
20,34133	5382
20,35200	5389
20,36267	5385
20,37333	5385
20,38400	5390
20,39467	5400
20,40533	5407
20,41600	5413
20,42667	5417
20,43733	5424
20,44800	5426
20,45867	5435
20,46933	5449
20,48000	5447
20,49067	5443
20,50133	5446
20,51200	5446
20,52267	5451
20,53333	5453
20,54400	5456
20,55467	5461
20,56533	5471
20,57600	5475
20,58667	5476
20,59733	5476
20,60800	5482
20,61867	5486
20,62933	5492
20,64000	5500
20,65067	5512
20,66133	5513
20,67200	5518
20,68267	5518
20,69333	5530
20,70400	5535
20,71467	5542
20,72533	5538
20,73600	5540
20,74667	5553
20,75733	5553
20,76800	5562
20,77867	5566
20,78933	5569
20,80000	5575
20,81067	5577
20,82133	5584
20,83200	5584
20,84267	5584
20,85333	5589
20,86400	5596
20,87467	5600
20,88533	5616
20,89600	5611
20,90667	5629
20,91733	5624
20,92800	5628
20,93867	5641
20,94933	5643
20,96000	5636
20,97067	5649
20,98133	5658
20,99200	5663
21,00267	5666
21,01333	5665
21,02400	5675
21,03467	5664
21,04533	5666
21,05600	5675
21,06667	5686
21,07733	5686
21,08800	5696
21,09867	5698
21,10933	5701
21,12000	5705
21,13067	5713
21,14133	5716
21,15200	5719
21,16267	5726
21,17333	5737
21,18400	5742
21,19467	5744
21,20533	5752
21,21600	5755
21,22667	5762
21,23733	5768
21,24800	5769
21,25867	5767
21,26933	5774
21,28000	5783
21,29067	5789
21,30133	5798
21,31200	5804
21,32267	5802
21,33333	5810
21,34400	5814
21,35467	5824
21,36533	5821
21,37600	5824
21,38667	5827
21,39733	5826
21,40800	5843
21,41867	5850
21,42933	5847
21,44000	5852
21,45067	5856
21,46133	5855
21,47200	5862
21,48267	5862
21,49333	5867
21,50400	5886
21,51467	5888
21,52533	5885
21,53600	5896
21,54667	5895
21,55733	5898
21,56800	5903
21,57867	5908
21,58933	5911
21,60000	5917
21,61067	5921
21,62133	5927
21,63200	5927
21,64267	5919
21,65333	5923
21,66400	5935
21,67467	5937
21,68533	5949
21,69600	5956
21,70667	5954
21,71733	5969
21,72800	5962
21,73867	5972
21,74933	5978
21,76000	5982
21,77067	5990
21,78133	6000
21,79200	6002
21,80267	6006
21,81333	6014
21,82400	6016
21,83467	6017
21,84533	6016
21,85600	6025
21,86667	6023
21,87733	6027
21,88800	6036
21,89867	6040
21,90933	6047
21,92000	6054
21,93067	6060
21,94133	6066
21,95200	6063
21,96267	6066
21,97333	6080
21,98400	6087
21,99467	6084
22,00533	6092
22,01600	6101
22,02667	6114
22,03733	6115
22,04800	6111
22,05867	6116
22,06933	6130
22,08000	6132
22,09067	6136
22,10133	6148
22,11200	6151
22,12267	6149
22,13333	6162
22,14400	6165
22,15467	6170
22,16533	6174
22,17600	6182
22,18667	6182
22,19733	6188
22,20800	6192
22,21867	6196
22,22933	6210
22,24000	6212
22,25067	6212
22,26133	6217
22,27200	6232
22,28267	6238
22,29333	6241
22,30400	6247
22,31467	6248
22,32533	6253
22,33600	6266
22,34667	6266
22,35733	6272
22,36800	6273
22,37867	6273
22,38933	6284
22,40000	6291
22,41067	6293
22,42133	6298
22,43200	6312
22,44267	6305
22,45333	6311
22,46400	6320
22,47467	6336
22,48533	6342
22,49600	6348
22,50667	6357
22,51733	6355
22,52800	6356
22,53867	6363
22,54933	6366
22,56000	6366
22,57067	6371
22,58133	6378
22,59200	6383
22,60267	6382
22,61333	6395
22,62400	6400
22,63467	6403
22,64533	6411
22,65600	6413
22,66667	6416
22,67733	6420
22,68800	6433
22,69867	6437
22,70933	6442
22,72000	6454
22,73067	6452
22,74133	6462
22,75200	6472
22,76267	6480
22,77333	6490
22,78400	6487
22,79467	6490
22,80533	6496
22,81600	6502
22,82667	6505
22,83733	6517
22,84800	6525
22,85867	6526
22,86933	6526
22,88000	6533
22,89067	6544
22,90133	6545
22,91200	6553
22,92267	6557
22,93333	6553
22,94400	6560
22,95467	6565
22,96533	6569
22,97600	6581
22,98667	6584
22,99733	6587
23,00800	6584
23,01867	6590
23,02933	6594
23,04000	6603
23,05067	6609
23,06133	6623
23,07200	6623
23,08267	6624
23,09333	6633
23,10400	6636
23,11467	6640
23,12533	6650
23,13600	6656
23,14667	6667
23,15733	6668
23,16800	6672
23,17867	6681
23,18933	6683
23,20000	6691
23,21067	6698
23,22133	6701
23,23200	6712
23,24267	6705
23,25333	6705
23,26400	6712
23,27467	6725
23,28533	6723
23,29600	6728
23,30667	6737
23,31733	6747
23,32800	6752
23,33867	6756
23,34933	6761
23,36000	6764
23,37067	6767
23,38133	6769
23,39200	6775
23,40267	6779
23,41333	6780
23,42400	6792
23,43467	6796
23,44533	6803
23,45600	6812
23,46667	6824
23,47733	6823
23,48800	6832
23,49867	6832
23,50933	6836
23,52000	6832
23,53067	6844
23,54133	6855
23,55200	6855
23,56267	6863
23,57333	6871
23,58400	6876
23,59467	6878
23,60533	6888
23,61600	6900
23,62667	6898
23,63733	6905
23,64800	6910
23,65867	6911
23,66933	6917
23,68000	6921
23,69067	6931
23,70133	6932
23,71200	6935
23,72267	6942
23,73333	6951
23,74400	6952
23,75467	6957
23,76533	6960
23,77600	6969
23,78667	6979
23,79733	6983
23,80800	6991
23,81867	6987
23,82933	6999
23,84000	7006
23,85067	7011
23,86133	7017
23,87200	7018
23,88267	7024
23,89333	7031
23,90400	7036
23,91467	7046
23,92533	7046
23,93600	7046
23,94667	7057
23,95733	7058
23,96800	7063
23,97867	7074
23,98933	7082
24,00000	7086
24,01067	7086
24,02133	7086
24,03200	7097
24,04267	7102
24,05333	7117
24,06400	7120
24,07467	7130
24,08533	7133
24,09600	7139
24,10667	7141
24,11733	7145
24,12800	7150
24,13867	7161
24,14933	7157
24,16000	7159
24,17067	7167
24,18133	7178
24,19200	7188
24,20267	7192
24,21333	7200
24,22400	7210
24,23467	7208
24,24533	7224
24,25600	7222
24,26667	7235
24,27733	7238
24,28800	7244
24,29867	7254
24,30933	7266
24,32000	7275
24,33067	7266
24,34133	7271
24,35200	7271
24,36267	7283
24,37333	7297
24,38400	7304
24,39467	7310
24,40533	7309
24,41600	7312
24,42667	7309
24,43733	7308
24,44800	7319
24,45867	7319
24,46933	7330
24,48000	7339
24,49067	7348
24,50133	7352
24,51200	7352
24,52267	7358
24,53333	7370
24,54400	7378
24,55467	7388
24,56533	7386
24,57600	7389
24,58667	7389
24,59733	7393
24,60800	7398
24,61867	7409
24,62933	7416
24,64000	7420
24,65067	7428
24,66133	7426
24,67200	7432
24,68267	7439
24,69333	7444
24,70400	7455
24,71467	7464
24,72533	7473
24,73600	7475
24,74667	7486
24,75733	7492
24,76800	7495
24,77867	7499
24,78933	7506
24,80000	7513
24,81067	7513
24,82133	7522
24,83200	7527
24,84267	7535
24,85333	7545
24,86400	7551
24,87467	7555
24,88533	7561
24,89600	7562
24,90667	7571
24,91733	7573
24,92800	7582
24,93867	7584
24,94933	7592
24,96000	7601
24,97067	7608
24,98133	7611
24,99200	7617
25,00267	7626
25,01333	7629
25,02400	7631
25,03467	7642
25,04533	7644
25,05600	7653
25,06667	7655
25,07733	7665
25,08800	7659
25,09867	7667
25,10933	7681
25,12000	7687
25,13067	7699
25,14133	7698
25,15200	7711
25,16267	7711
25,17333	7720
25,18400	7727
25,19467	7730
25,20533	7746
25,21600	7749
25,22667	7753
25,23733	7766
25,24800	7771
25,25867	7788
25,26933	7790
25,28000	7791
25,29067	7805
25,30133	7812
25,31200	7817
25,32267	7818
25,33333	7828
25,34400	7832
25,35467	7841
25,36533	7860
25,37600	7863
25,38667	7882
25,39733	7885
25,40800	7892
25,41867	7898
25,42933	7904
25,44000	7907
25,45067	7919
25,46133	7916
25,47200	7928
25,48267	7945
25,49333	7957
25,50400	7962
25,51467	7972
25,52533	7984
25,53600	7999
25,54667	8005
25,55733	8006
25,56800	8015
25,57867	8019
25,58933	8025
25,60000	8032
25,61067	8032
25,62133	8048
25,63200	8063
25,64267	8069
25,65333	8082
25,66400	8082
25,67467	8089
25,68533	8107
25,69600	8111
25,70667	8116
25,71733	8133
25,72800	8146
25,73867	8159
25,74933	8173
25,76000	8171
25,77067	8180
25,78133	8188
25,79200	8199
25,80267	8204
25,81333	8204
25,82400	8212
25,83467	8226
25,84533	8225
25,85600	8234
25,86667	8240
25,87733	8250
25,88800	8264
25,89867	8270
25,90933	8281
25,92000	8292
25,93067	8288
25,94133	8292
25,95200	8308
25,96267	8313
25,97333	8325
25,98400	8332
25,99467	8336
26,00533	8344
26,01600	8362
26,02667	8367
26,03733	8366
26,04800	8369
26,05867	8378
26,06933	8385
26,08000	8392
26,09067	8398
26,10133	8408
26,11200	8417
26,12267	8428
26,13333	8436
26,14400	8441
26,15467	8452
26,16533	8456
26,17600	8466
26,18667	8479
26,19733	8485
26,20800	8488
26,21867	8497
26,22933	8505
26,24000	8517
26,25067	8518
26,26133	8535
26,27200	8541
26,28267	8542
26,29333	8556
26,30400	8562
26,31467	8570
26,32533	8576
26,33600	8587
26,34667	8591
26,35733	8595
26,36800	8606
26,37867	8619
26,38933	8624
26,40000	8626
26,41067	8632
26,42133	8639
26,43200	8646
26,44267	8659
26,45333	8665
26,46400	8676
26,47467	8680
26,48533	8689
26,49600	8698
26,50667	8700
26,51733	8703
26,52800	8717
26,53867	8721
26,54933	8730
26,56000	8736
26,57067	8749
26,58133	8748
26,59200	8765
26,60267	8778
26,61333	8787
26,62400	8800
26,63467	8808
26,64533	8814
26,65600	8824
26,66667	8819
26,67733	8831
26,68800	8835
26,69867	8838
26,70933	8852
26,72000	8868
26,73067	8873
26,74133	8877
26,75200	8880
26,76267	8883
26,77333	8889
26,78400	8890
26,79467	8896
26,80533	8904
26,81600	8911
26,82667	8921
26,83733	8924
26,84800	8935
26,85867	8933
26,86933	8941
26,88000	8946
26,89067	8957
26,90133	8970
26,91200	8978
26,92267	8980
26,93333	8982
26,94400	8985
26,95467	8997
26,96533	8999
26,97600	9008
26,98667	9018
26,99733	9028
27,00800	9029
27,01867	9032
27,02933	9035
27,04000	9032
27,05067	9044
27,06133	9057
27,07200	9056
27,08267	9065
27,09333	9067
27,10400	9073
27,11467	9075
27,12533	9080
27,13600	9084
27,14667	9090
27,15733	9104
27,16800	9112
27,17867	9127
27,18933	9133
27,20000	9126
27,21067	9136
27,22133	9140
27,23200	9147
27,24267	9146
27,25333	9154
27,26400	9164
27,27467	9167
27,28533	9179
27,29600	9180
27,30667	9186
27,31733	9189
27,32800	9196
27,33867	9211
27,34933	9219
27,36000	9230
27,37067	9242
27,38133	9243
27,39200	9247
27,40267	9257
27,41333	9260
27,42400	9262
27,43467	9266
27,44533	9272
27,45600	9267
27,46667	9276
27,47733	9299
27,48800	9301
27,49867	9306
27,50933	9318
27,52000	9320
27,53067	9322
27,54133	9329
27,55200	9336
27,56267	9343
27,57333	9349
27,58400	9352
27,59467	9354
27,60533	9363
27,61600	9377
27,62667	9373
27,63733	9382
27,64800	9396
27,65867	9394
27,66933	9407
27,68000	9418
27,69067	9428
27,70133	9436
27,71200	9438
27,72267	9442
27,73333	9450
27,74400	9457
27,75467	9469
27,76533	9473
27,77600	9470
27,78667	9476
27,79733	9475
27,80800	9492
27,81867	9507
27,82933	9509
27,84000	9520
27,85067	9535
27,86133	9547
27,87200	9554
27,88267	9556
27,89333	9556
27,90400	9572
27,91467	9580
27,92533	9584
27,93600	9594
27,94667	9599
27,95733	9610
27,96800	9611
27,97867	9618
27,98933	9627
28,00000	9639
28,01067	9650
28,02133	9655
28,03200	9671
28,04267	9680
28,05333	9686
28,06400	9693
28,07467	9708
28,08533	9718
28,09600	9738
28,10667	9744
28,11733	9764
28,12800	9781
28,13867	9790
28,14933	9800
28,16000	9817
28,17067	9824
28,18133	9828
28,19200	9840
28,20267	9842
28,21333	9851
28,22400	9863
28,23467	9872
28,24533	9876
28,25600	9885
28,26667	9893
28,27733	9896
28,28800	9907
28,29867	9920
28,30933	9923
28,32000	9933
28,33067	9937
28,34133	9949
28,35200	9960
28,36267	9976
28,37333	9974
28,38400	9990
28,39467	9999
28,40533	10008
28,41600	10016
28,42667	10015
28,43733	10034
28,44800	10033
28,45867	10045
28,46933	10059
28,48000	10065
28,49067	10070
28,50133	10076
28,51200	10085
28,52267	10083
28,53333	10083
28,54400	10095
28,55467	10097
28,56533	10113
28,57600	10112
28,58667	10120
28,59733	10137
28,60800	10158
28,61867	10154
28,62933	10156
28,64000	10156
28,65067	10161
28,66133	10163
28,67200	10165
28,68267	10176
28,69333	10172
28,70400	10183
28,71467	10187
28,72533	10184
28,73600	10187
28,74667	10186
28,75733	10196
28,76800	10209
28,77867	10199
28,78933	10206
28,80000	10213
28,81067	10218
28,82133	10209
28,83200	10226
28,84267	10229
28,85333	10237
28,86400	10243
28,87467	10252
28,88533	10259
28,89600	10264
28,90667	10272
28,91733	10277
28,92800	10279
28,93867	10285
28,94933	10290
28,96000	10295
28,97067	10303
28,98133	10308
28,99200	10313
29,00267	10323
29,01333	10325
29,02400	10328
29,03467	10337
29,04533	10337
29,05600	10340
29,06667	10347
29,07733	10357
29,08800	10359
29,09867	10369
29,10933	10383
29,12000	10383
29,13067	10389
29,14133	10389
29,15200	10395
29,16267	10410
29,17333	10415
29,18400	10429
29,19467	10436
29,20533	10445
29,21600	10449
29,22667	10461
29,23733	10468
29,24800	10485
29,25867	10493
29,26933	10507
29,28000	10513
29,29067	10529
29,30133	10538
29,31200	10548
29,32267	10556
29,33333	10563
29,34400	10568
29,35467	10589
29,36533	10598
29,37600	10598
29,38667	10603
29,39733	10611
29,40800	10622
29,41867	10628
29,42933	10642
29,44000	10649
29,45067	10650
29,46133	10657
29,47200	10658
29,48267	10676
29,49333	10682
29,50400	10684
29,51467	10697
29,52533	10712
29,53600	10716
29,54667	10729
29,55733	10746
29,56800	10762
29,57867	10764
29,58933	10782
29,60000	10793
29,61067	10796
29,62133	10806
29,63200	10814
29,64267	10836
29,65333	10835
29,66400	10843
29,67467	10846
29,68533	10848
29,69600	10847
29,70667	10853
29,71733	10855
29,72800	10853
29,73867	10844
29,74933	10855
29,76000	10855
29,77067	10857
29,78133	10858
29,79200	10861
29,80267	10852
29,81333	10867
29,82400	10866
29,83467	10872
29,84533	10884
29,85600	10886
29,86667	10894
29,87733	10899
29,88800	10911
29,89867	10909
29,90933	10916
29,92000	10927
29,93067	10937
29,94133	10947
29,95200	10957
29,96267	10967
29,97333	10969
29,98400	10982
29,99467	10986
30,00533	10999
30,01600	11010
30,02667	11027
30,03733	11033
30,04800	11043
30,05867	11048
30,06933	11051
30,08000	11065
30,09067	11072
30,10133	11079
30,11200	11088
30,12267	11098
30,13333	11102
30,14400	11108
30,15467	11113
30,16533	11122
30,17600	11130
30,18667	11132
30,19733	11141
30,20800	11142
30,21867	11147
30,22933	11148
30,24000	11163
30,25067	11171
30,26133	11173
30,27200	11176
30,28267	11186
30,29333	11192
30,30400	11191
30,31467	11202
30,32533	11216
30,33600	11225
30,34667	11231
30,35733	11237
30,36800	11238
30,37867	11250
30,38933	11271
30,40000	11277
30,41067	11277
30,42133	11290
30,43200	11304
30,44267	11310
30,45333	11322
30,46400	11333
30,47467	11347
30,48533	11350
30,49600	11366
30,50667	11372
30,51733	11388
30,52800	11401
30,53867	11411
30,54933	11426
30,56000	11432
30,57067	11447
30,58133	11454
30,59200	11465
30,60267	11480
30,61333	11494
30,62400	11501
30,63467	11518
30,64533	11522
30,65600	11530
30,66667	11539
30,67733	11554
30,68800	11558
30,69867	11566
30,70933	11568
30,72000	11575
30,73067	11595
30,74133	11594
30,75200	11602
30,76267	11610
30,77333	11624
30,78400	11634
30,79467	11638
30,80533	11652
30,81600	11660
30,82667	11668
30,83733	11675
30,84800	11688
30,85867	11701
30,86933	11714
30,88000	11723
30,89067	11724
30,90133	11742
30,91200	11750
30,92267	11758
30,93333	11766
30,94400	11774
30,95467	11779
30,96533	11795
30,97600	11802
30,98667	11804
30,99733	11814
31,00800	11821
31,01867	11825
31,02933	11837
31,04000	11842
31,05067	11858
31,06133	11860
31,07200	11863
31,08267	11874
31,09333	11878
31,10400	11886
31,11467	11899
31,12533	11908
31,13600	11915
31,14667	11914
31,15733	11924
31,16800	11928
31,17867	11934
31,18933	11947
31,20000	11949
31,21067	11959
31,22133	11959
31,23200	11962
31,24267	11974
31,25333	11988
31,26400	11996
31,27467	12001
31,28533	12001
31,29600	12006
31,30667	12021
31,31733	12028
31,32800	12033
31,33867	12038
31,34933	12032
31,36000	12049
31,37067	12053
31,38133	12059
31,39200	12081
31,40267	12084
31,41333	12087
31,42400	12099
31,43467	12103
31,44533	12109
31,45600	12117
31,46667	12127
31,47733	12140
31,48800	12152
31,49867	12152
31,50933	12160
31,52000	12165
31,53067	12171
31,54133	12178
31,55200	12187
31,56267	12194
31,57333	12203
31,58400	12218
31,59467	12225
31,60533	12240
31,61600	12245
31,62667	12256
31,63733	12260
31,64800	12258
31,65867	12271
31,66933	12272
31,68000	12281
31,69067	12284
31,70133	12280
31,71200	12295
31,72267	12307
31,73333	12314
31,74400	12316
31,75467	12328
31,76533	12328
31,77600	12331
31,78667	12339
31,79733	12343
31,80800	12349
31,81867	12355
31,82933	12365
31,84000	12375
31,85067	12385
31,86133	12381
31,87200	12385
31,88267	12390
31,89333	12398
31,90400	12407
31,91467	12406
31,92533	12413
31,93600	12420
31,94667	12432
31,95733	12438
31,96800	12438
31,97867	12443
31,98933	12455
32,00000	12463
32,01067	12476
32,02133	12476
32,03200	12487
32,04267	12487
32,05333	12501
32,06400	12493
32,07467	12501
32,08533	12509
32,09600	12522
32,10667	12530
32,11733	12526
32,12800	12530
32,13867	12546
32,14933	12554
32,16000	12563
32,17067	12558
32,18133	12566
32,19200	12572
32,20267	12575
32,21333	12588
32,22400	12592
32,23467	12604
32,24533	12610
32,25600	12616
32,26667	12625
32,27733	12633
32,28800	12641
32,29867	12651
32,30933	12659
32,32000	12659
32,33067	12680
32,34133	12685
32,35200	12710
32,36267	12715
32,37333	12729
32,38400	12744
32,39467	12759
32,40533	12772
32,41600	12788
32,42667	12797
32,43733	12819
32,44800	12833
32,45867	12850
32,46933	12863
32,48000	12886
32,49067	12899
32,50133	12920
32,51200	12940
32,52267	12960
32,53333	12982
32,54400	13008
32,55467	13022
32,56533	13050
32,57600	13083
32,58667	13105
32,59733	13128
32,60800	13151
32,61867	13187
32,62933	13220
32,64000	13258
32,65067	13290
32,66133	13324
32,67200	13355
32,68267	13392
32,69333	13433
32,70400	13477
32,71467	13513
32,72533	13551
32,73600	13594
32,74667	13642
32,75733	13684
32,76800	13735
32,77867	13783
32,78933	13830
32,80000	13888
32,81067	13937
32,82133	14000
32,83200	14059
32,84267	14129
32,85333	14192
32,86400	14259
32,87467	14334
32,88533	14414
32,89600	14502
32,90667	14596
32,91733	14695
32,92800	14790
32,93867	14895
32,94933	15002
32,96000	15110
32,97067	15221
32,98133	15323
32,99200	15420
33,00267	15519
33,01333	15613
33,02400	15702
33,03467	15798
33,04533	15886
33,05600	15966
33,06667	16041
33,07733	16124
33,08800	16214
33,09867	16303
33,10933	16389
33,12000	16480
33,13067	16572
33,14133	16659
33,15200	16748
33,16267	16833
33,17333	16936
33,18400	17035
33,19467	17132
33,20533	17219
33,21600	17315
33,22667	17422
33,23733	17518
33,24800	17611
33,25867	17709
33,26933	17793
33,28000	17889
33,29067	17986
33,30133	18070
33,31200	18158
33,32267	18245
33,33333	18333
33,34400	18403
33,35467	18493
33,36533	18578
33,37600	18671
33,38667	18750
33,39733	18830
33,40800	18918
33,41867	19016
33,42933	19110
33,44000	19199
33,45067	19288
33,46133	19389
33,47200	19490
33,48267	19572
33,49333	19661
33,50400	19758
33,51467	19853
33,52533	19949
33,53600	20041
33,54667	20138
33,55733	20242
33,56800	20339
33,57867	20441
33,58933	20535
33,60000	20648
33,61067	20754
33,62133	20869
33,63200	20984
33,64267	21099
33,65333	21211
33,66400	21322
33,67467	21439
33,68533	21555
33,69600	21661
33,70667	21756
33,71733	21861
33,72800	21969
33,73867	22070
33,74933	22177
33,76000	22271
33,77067	22382
33,78133	22479
33,79200	22588
33,80267	22686
33,81333	22795
33,82400	22890
33,83467	23007
33,84533	23106
33,85600	23217
33,86667	23344
33,87733	23465
33,88800	23581
33,89867	23692
33,90933	23805
33,92000	23925
33,93067	24023
33,94133	24118
33,95200	24223
33,96267	24325
33,97333	24423
33,98400	24537
33,99467	24645
34,00533	24772
34,01600	24891
34,02667	25036
34,03733	25188
34,04800	25364
34,05867	25555
34,06933	25743
34,08000	25918
34,09067	26054
34,10133	26163
34,11200	26232
34,12267	26283
34,13333	26339
34,14400	26415
34,15467	26507
34,16533	26617
34,17600	26737
34,18667	26886
34,19733	27060
34,20800	27260
34,21867	27483
34,22933	27728
34,24000	27993
34,25067	28254
34,26133	28506
34,27200	28736
34,28267	28932
34,29333	29071
34,30400	29159
34,31467	29198
34,32533	29243
34,33600	29289
34,34667	29355
34,35733	29434
34,36800	29533
34,37867	29672
34,38933	29827
34,40000	30028
34,41067	30266
34,42133	30562
34,43200	30860
34,44267	31145
34,45333	31387
34,46400	31586
34,47467	31704
34,48533	31771
34,49600	31802
34,50667	31802
34,51733	31826
34,52800	31838
34,53867	31850
34,54933	31869
34,56000	31911
34,57067	31943
34,58133	31976
34,59200	32019
34,60267	32094
34,61333	32176
34,62400	32263
34,63467	32345
34,64533	32429
34,65600	32489
34,66667	32546
34,67733	32602
34,68800	32671
34,69867	32739
34,70933	32821
34,72000	32897
34,73067	32983
34,74133	33070
34,75200	33182
34,76267	33297
34,77333	33436
34,78400	33578
34,79467	33738
34,80533	33890
34,81600	34035
34,82667	34161
34,83733	34320
34,84800	34486
34,85867	34640
34,86933	34761
34,88000	34846
34,89067	34919
34,90133	34994
34,91200	35078
34,92267	35170
34,93333	35285
34,94400	35418
34,95467	35608
34,96533	35970
34,97600	36847
34,98667	39047
34,99733	43908
35,00800	52970
35,01867	67406
35,02933	87104
35,04000	110127
35,05067	132161
35,06133	146599
35,07200	148538
35,08267	138704
35,09333	122377
35,10400	105417
35,11467	90929
35,12533	79829
35,13600	71721
35,14667	65981
35,15733	62025
35,16800	59353
35,17867	57479
35,18933	55944
35,20000	54530
35,21067	53204
35,22133	52010
35,23200	51001
35,24267	50157
35,25333	49477
35,26400	48909
35,27467	48424
35,28533	47987
35,29600	47618
35,30667	47284
35,31733	46975
35,32800	46731
35,33867	46534
35,34933	46406
35,36000	46253
35,37067	45950
35,38133	45488
35,39200	44968
35,40267	44567
35,41333	44436
35,42400	44732
35,43467	45741
35,44533	47638
35,45600	50133
35,46667	52442
35,47733	53774
35,48800	53930
35,49867	53239
35,50933	52125
35,52000	50813
35,53067	49428
35,54133	48233
35,55200	47529
35,56267	47540
35,57333	48109
35,58400	48737
35,59467	48896
35,60533	48405
35,61600	47511
35,62667	46549
35,63733	45718
35,64800	45045
35,65867	44500
35,66933	44091
35,68000	43804
35,69067	43602
35,70133	43468
35,71200	43376
35,72267	43342
35,73333	43339
35,74400	43348
35,75467	43382
35,76533	43458
35,77600	43607
35,78667	43842
35,79733	44235
35,80800	44773
35,81867	45377
35,82933	45903
35,84000	46209
35,85067	46261
35,86133	46159
35,87200	45995
35,88267	45784
35,89333	45505
35,90400	45148
35,91467	44773
35,92533	44412
35,93600	44094
35,94667	43857
35,95733	43673
35,96800	43568
35,97867	43517
35,98933	43537
36,00000	43624
36,01067	43732
36,02133	43820
36,03200	43861
36,04267	43827
36,05333	43762
36,06400	43674
36,07467	43599
36,08533	43557
36,09600	43552
36,10667	43591
36,11733	43665
36,12800	43746
36,13867	43869
36,14933	44020
36,16000	44199
36,17067	44371
36,18133	44536
36,19200	44668
36,20267	44795
36,21333	44914
36,22400	45032
36,23467	45139
36,24533	45204
36,25600	45192
36,26667	45127
36,27733	45101
36,28800	45184
36,29867	45467
36,30933	45872
36,32000	46250
36,33067	46448
36,34133	46383
36,35200	46091
36,36267	45714
36,37333	45366
36,38400	45092
36,39467	44880
36,40533	44703
36,41600	44552
36,42667	44433
36,43733	44334
36,44800	44261
36,45867	44224
36,46933	44216
36,48000	44220
36,49067	44233
36,50133	44259
36,51200	44284
36,52267	44308
36,53333	44327
36,54400	44341
36,55467	44355
36,56533	44375
36,57600	44395
36,58667	44404
36,59733	44415
36,60800	44421
36,61867	44442
36,62933	44454
36,64000	44482
36,65067	44515
36,66133	44567
36,67200	44626
36,68267	44681
36,69333	44725
36,70400	44759
36,71467	44771
36,72533	44783
36,73600	44824
36,74667	44883
36,75733	44976
36,76800	45055
36,77867	45129
36,78933	45134
36,80000	45073
36,81067	44976
36,82133	44879
36,83200	44781
36,84267	44711
36,85333	44667
36,86400	44633
36,87467	44613
36,88533	44599
36,89600	44592
36,90667	44593
36,91733	44596
36,92800	44606
36,93867	44615
36,94933	44651
36,96000	44709
36,97067	44811
36,98133	44969
36,99200	45174
37,00267	45427
37,01333	45676
37,02400	45855
37,03467	45937
37,04533	45908
37,05600	45768
37,06667	45571
37,07733	45358
37,08800	45152
37,09867	44985
37,10933	44872
37,12000	44787
37,13067	44744
37,14133	44721
37,15200	44726
37,16267	44750
37,17333	44809
37,18400	44893
37,19467	44997
37,20533	45107
37,21600	45183
37,22667	45216
37,23733	45191
37,24800	45123
37,25867	45036
37,26933	44947
37,28000	44869
37,29067	44810
37,30133	44769
37,31200	44738
37,32267	44732
37,33333	44717
37,34400	44706
37,35467	44705
37,36533	44703
37,37600	44699
37,38667	44708
37,39733	44716
37,40800	44736
37,41867	44758
37,42933	44785
37,44000	44808
37,45067	44826
37,46133	44847
37,47200	44863
37,48267	44869
37,49333	44878
37,50400	44876
37,51467	44878
37,52533	44874
37,53600	44869
37,54667	44859
37,55733	44845
37,56800	44826
37,57867	44814
37,58933	44806
37,60000	44791
37,61067	44790
37,62133	44775
37,63200	44779
37,64267	44793
37,65333	44810
37,66400	44830
37,67467	44860
37,68533	44899
37,69600	44947
37,70667	45005
37,71733	45055
37,72800	45096
37,73867	45121
37,74933	45146
37,76000	45148
37,77067	45142
37,78133	45124
37,79200	45099
37,80267	45067
37,81333	45030
37,82400	44996
37,83467	44969
37,84533	44936
37,85600	44903
37,86667	44880
37,87733	44860
37,88800	44850
37,89867	44851
37,90933	44841
37,92000	44853
37,93067	44859
37,94133	44851
37,95200	44861
37,96267	44873
37,97333	44872
37,98400	44881
37,99467	44879
38,00533	44884
38,01600	44879
38,02667	44869
38,03733	44859
38,04800	44852
38,05867	44852
38,06933	44848
38,08000	44842
38,09067	44832
38,10133	44835
38,11200	44832
38,12267	44834
38,13333	44832
38,14400	44825
38,15467	44833
38,16533	44839
38,17600	44846
38,18667	44853
38,19733	44855
38,20800	44849
38,21867	44870
38,22933	44872
38,24000	44880
38,25067	44887
38,26133	44887
38,27200	44889
38,28267	44886
38,29333	44884
38,30400	44873
38,31467	44868
38,32533	44855
38,33600	44857
38,34667	44845
38,35733	44839
38,36800	44836
38,37867	44838
38,38933	44834
38,40000	44840
38,41067	44831
38,42133	44831
38,43200	44834
38,44267	44834
38,45333	44847
38,46400	44847
38,47467	44856
38,48533	44858
38,49600	44860
38,50667	44868
38,51733	44866
38,52800	44875
38,53867	44886
38,54933	44890
38,56000	44887
38,57067	44885
38,58133	44885
38,59200	44899
38,60267	44899
38,61333	44894
38,62400	44908
38,63467	44900
38,64533	44905
38,65600	44915
38,66667	44927
38,67733	44938
38,68800	44951
38,69867	44971
38,70933	44987
38,72000	45017
38,73067	45062
38,74133	45113
38,75200	45212
38,76267	45382
38,77333	45656
38,78400	46103
38,79467	46813
38,80533	47860
38,81600	49377
38,82667	51456
38,83733	54155
38,84800	57443
38,85867	61198
38,86933	65132
38,88000	68859
38,89067	71922
38,90133	73903
38,91200	74519
38,92267	73683
38,93333	71539
38,94400	68420
38,95467	64752
38,96533	60982
38,97600	57447
38,98667	54416
38,99733	51964
39,00800	50096
39,01867	48725
39,02933	47763
39,04000	47099
39,05067	46631
39,06133	46310
39,07200	46075
39,08267	45894
39,09333	45737
39,10400	45604
39,11467	45478
39,12533	45360
39,13600	45255
39,14667	45139
39,15733	45024
39,16800	44905
39,17867	44779
39,18933	44648
39,20000	44513
39,21067	44374
39,22133	44224
39,23200	44068
39,24267	43902
39,25333	43734
39,26400	43549
39,27467	43368
39,28533	43168
39,29600	42951
39,30667	42744
39,31733	42531
39,32800	42300
39,33867	42071
39,34933	41842
39,36000	41600
39,37067	41358
39,38133	41114
39,39200	40879
39,40267	40660
39,41333	40429
39,42400	40183
39,43467	39969
39,44533	39760
39,45600	39546
39,46667	39317
39,47733	39108
39,48800	38902
39,49867	38675
39,50933	38424
39,52000	38144
39,53067	37856
39,54133	37530
39,55200	37167
39,56267	36785
39,57333	36398
39,58400	36018
39,59467	35650
39,60533	35277
39,61600	34856
39,62667	34367
39,63733	33777
39,64800	33069
39,65867	32232
39,66933	31264
39,68000	30209
39,69067	29086
39,70133	27899
39,71200	26693
39,72267	25463
39,73333	24220
39,74400	22967
39,75467	21698
39,76533	20421
39,77600	19174
39,78667	17997
39,79733	16869
39,80800	15798
39,81867	14791
39,82933	13844
39,84000	12970
39,85067	12156
39,86133	11388
39,87200	10679
39,88267	10037
39,89333	9445
39,90400	8890
39,91467	8387
39,92533	7925
39,93600	7511
39,94667	7115
39,95733	6757
39,96800	6425
39,97867	6110
39,98933	5833
40,00000	5573
40,01067	5328
40,02133	5105
40,03200	4890
40,04267	4687
40,05333	4500
40,06400	4326
40,07467	4164
40,08533	4018
40,09600	3872
40,10667	3726
40,11733	3595
40,12800	3473
40,13867	3346
40,14933	3239
40,16000	3129
40,17067	3022
40,18133	2917
40,19200	2825
40,20267	2729
40,21333	2648
40,22400	2564
40,23467	2486
40,24533	2419
40,25600	2335
40,26667	2261
40,27733	2203
40,28800	2135
40,29867	2079
40,30933	2013
40,32000	1960
40,33067	1906
40,34133	1850
40,35200	1804
40,36267	1752
40,37333	1702
40,38400	1658
40,39467	1611
40,40533	1562
40,41600	1519
40,42667	1469
40,43733	1433
40,44800	1400
40,45867	1364
40,46933	1337
40,48000	1303
40,49067	1267
40,50133	1232
40,51200	1201
40,52267	1175
40,53333	1133
40,54400	1103
40,55467	1077
40,56533	1047
40,57600	1020
40,58667	997
40,59733	964
40,60800	938
40,61867	909
40,62933	883
40,64000	855
40,65067	833
40,66133	809
40,67200	781
40,68267	753
40,69333	730
40,70400	713
40,71467	680
40,72533	651
40,73600	628
40,74667	607
40,75733	589
40,76800	562
40,77867	539
40,78933	518
40,80000	498
40,81067	476
40,82133	455
40,83200	432
40,84267	413
40,85333	388
40,86400	370
40,87467	353
40,88533	335
40,89600	310
40,90667	288
40,91733	269
40,92800	266
40,93867	246
40,94933	225
40,96000	207
40,97067	199
40,98133	179
40,99200	177
41,00267	152
41,01333	138
41,02400	122
41,03467	106
41,04533	87
41,05600	80
41,06667	72
41,07733	66
41,08800	56
41,09867	32
41,10933	37
41,12000	31
41,13067	21
41,14133	0
41,15200	-6
41,16267	-13
41,17333	-22
41,18400	-36
41,19467	-37
41,20533	-48
41,21600	-56
41,22667	-62
41,23733	-67
41,24800	-83
41,25867	-92
41,26933	-102
41,28000	-107
41,29067	-107
41,30133	-109
41,31200	-122
41,32267	-123
41,33333	-136
41,34400	-142
41,35467	-147
41,36533	-157
41,37600	-152
41,38667	-153
41,39733	-153
41,40800	-160
41,41867	-158
41,42933	-156
41,44000	-148
41,45067	-155
41,46133	-157
41,47200	-152
41,48267	-150
41,49333	-147
41,50400	-146
41,51467	-144
41,52533	-146
41,53600	-139
41,54667	-129
41,55733	-129
41,56800	-129
41,57867	-115
41,58933	-116
41,60000	-111
41,61067	-102
41,62133	-95
41,63200	-97
41,64267	-83
41,65333	-78
41,66400	-75
41,67467	-70
41,68533	-64
41,69600	-44
41,70667	-48
41,71733	-39
41,72800	-33
41,73867	-37
41,74933	-27
41,76000	-14
41,77067	-8
41,78133	-6
41,79200	3
41,80267	8
41,81333	14
41,82400	16
41,83467	24
41,84533	31
41,85600	37
41,86667	32
41,87733	45
41,88800	51
41,89867	51
41,90933	64
41,92000	64
41,93067	72
41,94133	79
41,95200	83
41,96267	91
41,97333	96
41,98400	97
41,99467	101
42,00533	109
42,01600	119
42,02667	119
42,03733	118
42,04800	119
42,05867	137
42,06933	142
42,08000	148
42,09067	146
42,10133	158
42,11200	152
42,12267	155
42,13333	160
42,14400	168
42,15467	169
42,16533	170
42,17600	169
42,18667	169
42,19733	170
42,20800	176
42,21867	182
42,22933	178
42,24000	178
42,25067	179
42,26133	180
42,27200	184
42,28267	184
42,29333	181
42,30400	189
42,31467	188
42,32533	184
42,33600	184
42,34667	191
42,35733	194
42,36800	192
42,37867	200
42,38933	200
42,40000	191
42,41067	197
42,42133	199
42,43200	201
42,44267	202
42,45333	210
42,46400	210
42,47467	210
42,48533	197
42,49600	206
42,50667	209
42,51733	208
42,52800	205
42,53867	209
42,54933	212
42,56000	212
42,57067	209
42,58133	215
42,59200	209
42,60267	202
42,61333	212
42,62400	213
42,63467	207
42,64533	204
42,65600	209
42,66667	209
42,67733	212
42,68800	210
42,69867	206
42,70933	201
42,72000	202
42,73067	201
42,74133	195
42,75200	198
42,76267	203
42,77333	203
42,78400	202
42,79467	203
42,80533	207
42,81600	207
42,82667	201
42,83733	200
42,84800	207
42,85867	204
42,86933	201
42,88000	205
42,89067	201
42,90133	199
42,91200	189
42,92267	189
42,93333	189
42,94400	193
42,95467	194
42,96533	195
42,97600	192
42,98667	191
42,99733	195
43,00800	190
43,01867	191
43,02933	193
43,04000	198
43,05067	209
43,06133	202
43,07200	202
43,08267	202
43,09333	200
43,10400	195
43,11467	203
43,12533	192
43,13600	191
43,14667	193
43,15733	188
43,16800	184
43,17867	195
43,18933	202
43,20000	196
43,21067	198
43,22133	186
43,23200	192
43,24267	193
43,25333	192
43,26400	195
43,27467	186
43,28533	186
43,29600	192
43,30667	198
43,31733	199
43,32800	190
43,33867	183
43,34933	183
43,36000	187
43,37067	197
43,38133	195
43,39200	201
43,40267	194
43,41333	188
43,42400	197
43,43467	191
43,44533	193
43,45600	191
43,46667	186
43,47733	181
43,48800	185
43,49867	182
43,50933	183
43,52000	184
43,53067	183
43,54133	189
43,55200	193
43,56267	188
43,57333	187
43,58400	178
43,59467	168
43,60533	175
43,61600	179
43,62667	178
43,63733	175
43,64800	174
43,65867	180
43,66933	183
43,68000	183
43,69067	189
43,70133	186
43,71200	183
43,72267	185
43,73333	185
43,74400	183
43,75467	189
43,76533	183
43,77600	180
43,78667	178
43,79733	176
43,80800	176
43,81867	177
43,82933	184
43,84000	184
43,85067	175
43,86133	165
43,87200	173
43,88267	172
43,89333	179
43,90400	180
43,91467	175
43,92533	176
43,93600	179
43,94667	175
43,95733	175
43,96800	178
43,97867	167
43,98933	169
44,00000	174
44,01067	173
44,02133	164
44,03200	157
44,04267	153
44,05333	154
44,06400	157
44,07467	162
44,08533	166
44,09600	156
44,10667	159
44,11733	156
44,12800	159
44,13867	154
44,14933	152
44,16000	155
44,17067	158
44,18133	156
44,19200	155
44,20267	161
44,21333	155
44,22400	153
44,23467	151
44,24533	150
44,25600	151
44,26667	155
44,27733	154
44,28800	154
44,29867	153
44,30933	153
44,32000	157
44,33067	154
44,34133	161
44,35200	162
44,36267	156
44,37333	153
44,38400	167
44,39467	165
44,40533	163
44,41600	163
44,42667	151
44,43733	144
44,44800	140
44,45867	148
44,46933	153
44,48000	151
44,49067	147
44,50133	148
44,51200	147
44,52267	150
44,53333	151
44,54400	152
44,55467	147
44,56533	141
44,57600	141
44,58667	146
44,59733	145
44,60800	149
44,61867	144
44,62933	152
44,64000	153
44,65067	156
44,66133	152
44,67200	147
44,68267	151
44,69333	155
44,70400	153
44,71467	143
44,72533	141
44,73600	140
44,74667	145
44,75733	145
44,76800	144
44,77867	143
44,78933	144
44,80000	142
44,81067	140
44,82133	142
44,83200	149
44,84267	147
44,85333	146
44,86400	145
44,87467	148
44,88533	145
44,89600	140
44,90667	141
44,91733	140
44,92800	142
44,93867	144
44,94933	143
44,96000	135
44,97067	147
44,98133	145
44,99200	134
45,00267	133
45,01333	132
45,02400	130
45,03467	139
45,04533	137
45,05600	139
45,06667	143
45,07733	139
45,08800	132
45,09867	134
45,10933	137
45,12000	138
45,13067	131
45,14133	125
45,15200	132
45,16267	135
45,17333	127
45,18400	135
45,19467	138
45,20533	129
45,21600	133
45,22667	138
45,23733	139
45,24800	133
45,25867	132
45,26933	126
45,28000	133
45,29067	130
45,30133	137
45,31200	127
45,32267	138
45,33333	130
45,34400	132
45,35467	131
45,36533	132
45,37600	135
45,38667	136
45,39733	135
45,40800	128
45,41867	135
45,42933	132
45,44000	136
45,45067	129
45,46133	128
45,47200	130
45,48267	127
45,49333	127
45,50400	134
45,51467	131
45,52533	138
45,53600	132
45,54667	127
45,55733	124
45,56800	129
45,57867	128
45,58933	126
45,60000	115
45,61067	125
45,62133	129
45,63200	129
45,64267	122
45,65333	124
45,66400	128
45,67467	119
45,68533	121
45,69600	122
45,70667	122
45,71733	119
45,72800	129
45,73867	132
45,74933	129
45,76000	136
45,77067	122
45,78133	128
45,79200	132
45,80267	125
45,81333	118
45,82400	126
45,83467	125
45,84533	119
45,85600	122
45,86667	123
45,87733	125
45,88800	120
45,89867	123
45,90933	124
45,92000	118
45,93067	128
45,94133	126
45,95200	122
45,96267	127
45,97333	123
45,98400	127
45,99467	119
46,00533	124
46,01600	130
46,02667	129
46,03733	124
46,04800	125
46,05867	126
46,06933	123
46,08000	124
46,09067	130
46,10133	126
46,11200	124
46,12267	122
46,13333	123
46,14400	136
46,15467	124
46,16533	120
46,17600	125
46,18667	130
46,19733	130
46,20800	120
46,21867	121
46,22933	117
46,24000	110
46,25067	113
46,26133	118
46,27200	110
46,28267	114
46,29333	111
46,30400	112
46,31467	116
46,32533	111
46,33600	113
46,34667	119
46,35733	121
46,36800	117
46,37867	121
46,38933	124
46,40000	119
46,41067	121
46,42133	124
46,43200	123
46,44267	122
46,45333	126
46,46400	120
46,47467	119
46,48533	117
46,49600	123
46,50667	126
46,51733	126
46,52800	121
46,53867	120
46,54933	127
46,56000	127
46,57067	122
46,58133	121
46,59200	124
46,60267	119
46,61333	119
46,62400	119
46,63467	121
46,64533	120
46,65600	120
46,66667	115
46,67733	114
46,68800	116
46,69867	109
46,70933	113
46,72000	124
46,73067	129
46,74133	125
46,75200	122
46,76267	126
46,77333	112
46,78400	110
46,79467	119
46,80533	121
46,81600	113
46,82667	117
46,83733	125
46,84800	115
46,85867	112
46,86933	117
46,88000	115
46,89067	117
46,90133	113
46,91200	117
46,92267	114
46,93333	111
46,94400	105
46,95467	108
46,96533	108
46,97600	114
46,98667	112
46,99733	119
47,00800	119
47,01867	121
47,02933	123
47,04000	117
47,05067	112
47,06133	109
47,07200	114
47,08267	111
47,09333	107
47,10400	107
47,11467	107
47,12533	111
47,13600	113
47,14667	106
47,15733	108
47,16800	100
47,17867	108
47,18933	107
47,20000	110
47,21067	102
47,22133	107
47,23200	102
47,24267	99
47,25333	104
47,26400	104
47,27467	105
47,28533	112
47,29600	109
47,30667	114
47,31733	111
47,32800	109
47,33867	109
47,34933	113
47,36000	113
47,37067	111
47,38133	113
47,39200	108
47,40267	113
47,41333	105
47,42400	112
47,43467	116
47,44533	107
47,45600	103
47,46667	101
47,47733	104
47,48800	101
47,49867	96
47,50933	111
47,52000	105
47,53067	100
47,54133	110
47,55200	104
47,56267	103
47,57333	105
47,58400	106
47,59467	103
47,60533	99
47,61600	101
47,62667	99
47,63733	105
47,64800	107
47,65867	98
47,66933	101
47,68000	107
47,69067	101
47,70133	98
47,71200	104
47,72267	91
47,73333	97
47,74400	105
47,75467	106
47,76533	99
47,77600	107
47,78667	101
47,79733	103
47,80800	105
47,81867	99
47,82933	97
47,84000	100
47,85067	100
47,86133	99
47,87200	94
47,88267	79
47,89333	87
47,90400	94
47,91467	103
47,92533	97
47,93600	96
47,94667	95
47,95733	96
47,96800	96
47,97867	95
47,98933	93
48,00000	98
48,01067	96
48,02133	99
48,03200	100
48,04267	100
48,05333	94
48,06400	102
48,07467	97
48,08533	95
48,09600	99
48,10667	105
48,11733	96
48,12800	95
48,13867	101
48,14933	98
48,16000	97
48,17067	93
48,18133	95
48,19200	100
48,20267	93
48,21333	95
48,22400	90
48,23467	99
48,24533	93
48,25600	92
48,26667	94
48,27733	95
48,28800	97
48,29867	100
48,30933	92
48,32000	95
48,33067	95
48,34133	95
48,35200	92
48,36267	94
48,37333	85
48,38400	87
48,39467	94
48,40533	98
48,41600	92
48,42667	94
48,43733	98
48,44800	95
48,45867	86
48,46933	89
48,48000	90
48,49067	95
48,50133	94
48,51200	94
48,52267	86
48,53333	87
48,54400	94
48,55467	89
48,56533	90
48,57600	86
48,58667	96
48,59733	96
48,60800	88
48,61867	87
48,62933	79
48,64000	96
48,65067	96
48,66133	93
48,67200	75
48,68267	87
48,69333	92
48,70400	89
48,71467	90
48,72533	87
48,73600	85
48,74667	91
48,75733	88
48,76800	91
48,77867	87
48,78933	86
48,80000	95
48,81067	91
48,82133	88
48,83200	93
48,84267	85
48,85333	87
48,86400	90
48,87467	91
48,88533	84
48,89600	88
48,90667	89
48,91733	85
48,92800	86
48,93867	83
48,94933	80
48,96000	77
48,97067	81
48,98133	74
48,99200	83
49,00267	82
49,01333	83
49,02400	80
49,03467	79
49,04533	74
49,05600	77
49,06667	83
49,07733	82
49,08800	75
49,09867	82
49,10933	82
49,12000	78
49,13067	77
49,14133	78
49,15200	76
49,16267	79
49,17333	84
49,18400	79
49,19467	82
49,20533	78
49,21600	83
49,22667	87
49,23733	84
49,24800	77
49,25867	77
49,26933	80
49,28000	81
49,29067	84
49,30133	72
49,31200	70
49,32267	72
49,33333	68
49,34400	76
49,35467	70
49,36533	62
49,37600	76
49,38667	74
49,39733	79
49,40800	85
49,41867	80
49,42933	80
49,44000	78
49,45067	79
49,46133	77
49,47200	78
49,48267	78
49,49333	76
49,50400	78
49,51467	79
49,52533	82
49,53600	82
49,54667	74
49,55733	78
49,56800	67
49,57867	72
49,58933	73
49,60000	72
49,61067	75
49,62133	66
49,63200	70
49,64267	67
49,65333	68
49,66400	77
49,67467	68
49,68533	69
49,69600	66
49,70667	71
49,71733	71
49,72800	73
49,73867	76
49,74933	69
49,76000	71
49,77067	72
49,78133	75
49,79200	89
49,80267	75
49,81333	77
49,82400	76
49,83467	70
49,84533	74
49,85600	77
49,86667	79
49,87733	79
49,88800	85
49,89867	83
49,90933	80
49,92000	81
49,93067	81
49,94133	83
49,95200	80
49,96267	71
49,97333	76
49,98400	84
49,99467	75
50,00533	79


