[Header]
Application Name	LabSolutions
Version	5.73
Data File Name	C:\Users\Public\DADOS\Ricardo borges\RMBorges\26.02.25\MATE 3.lcd
Output Date	27/02/2025
Output Time	01:23:00

[File Information]
Type	Data File
Generated	27/02/2025 00:32:33
Generated by	System Administrator
Modified	27/02/2025 01:23:00
Modified by	System Administrator

[Sample Information]
Operator Name	System Administrator
Acquired	27/02/2025 00:32:58
Sample Type	0:Unknown
Level	0
Sample Name	MATE 3
Sample ID	MATE 3
ISTD Amount1	1
ISTD Amount2	1
ISTD Amount3	1
ISTD Amount4	1
ISTD Amount5	1
ISTD Amount6	1
ISTD Amount7	1
ISTD Amount8	1
ISTD Amount9	1
ISTD Amount10	1
ISTD Amount11	1
ISTD Amount12	1
ISTD Amount13	1
ISTD Amount14	1
ISTD Amount15	1
ISTD Amount16	1
ISTD Amount17	1
ISTD Amount18	1
ISTD Amount19	1
ISTD Amount20	1
ISTD Amount21	1
ISTD Amount22	1
ISTD Amount23	1
ISTD Amount24	1
ISTD Amount25	1
ISTD Amount26	1
ISTD Amount27	1
ISTD Amount28	1
ISTD Amount29	1
ISTD Amount30	1
ISTD Amount31	1
ISTD Amount32	1
Sample Amount	1
Dilution Factor	1
Vial#	20
Injection Volume	10

[Original Files]
Data File	C:\Users\Public\DADOS\Ricardo borges\RMBorges\26.02.25\MATE 3.lcd
Method File	C:\Users\Public\MÉTODOS\MÉTODOS HPLC AUTOMÁTICO\RICARDO BORGES\RMBorges\sciffee\experimental 1 - pool.lcm
Batch File	C:\Users\Public\DADOS\Ricardo borges\RMBorges\26.02.25\BATCH_RM_MIX POOL_26.02.2025.lcb
Report Format File	C:\LabSolutions\System\Default.lsr

[File Description]


[Configuration]
Instrument Name	HPLC analítico (automático)
Instrument #	1
Line #	1
# of Detectors	1
Detector ID	PDA
Detector Name	PDA
# of Channels	1

[Peak Table(PDA-Ch1)]
# of Peaks	90
Peak#	R.Time	I.Time	F.Time	Area	Height	A/H	Conc.	Mark	ID#	Name	k'	Plate #	Plate Ht.	Tailing	Resolution	Sep.Factor	Area Ratio	Height Ratio	Conc. %	Norm Conc.
1	1,586	1,131	1,696	172174	14033	12,269	0,000	   			0,000	259	578,351	0,000	0,000	0,000	0	0	0,000	0,000
2	1,768	1,696	1,803	125061	27337	4,575	0,000	 V 			0,115	713	210,456	0,000	0,552	0,000	0	0	0,000	0,000
3	1,850	1,803	2,005	241634	24457	9,880	0,000	 V 			0,167	64	2358,300	0,000	0,138	1,452	0	0	0,000	0,000
4	2,096	2,005	2,432	667918	51612	12,941	0,000	 V 			0,322	716	209,581	0,000	0,396	1,931	0	0	0,000	0,000
5	2,478	2,432	2,571	77104	9905	7,785	0,000	 V 			0,562	32	4744,582	0,000	0,368	1,749	0	0	0,000	0,000
6	2,636	2,571	2,752	85876	8970	9,574	0,000	 V 			0,662	119	1261,019	0,000	0,116	1,178	0	0	0,000	0,000
7	2,898	2,752	3,275	522262	49739	10,500	0,000	 V 			0,827	2390	62,773	0,000	0,434	1,249	0	0	0,000	0,000
8	3,404	3,275	3,627	119881	7194	16,663	0,000	 V 			1,146	412	364,216	0,000	1,114	1,386	0	0	0,000	0,000
9	3,839	3,627	3,979	108852	7023	15,499	0,000	 V 			1,421	768	195,297	0,000	0,711	1,240	0	0	0,000	0,000
10	4,132	3,979	4,341	421505	48242	8,737	0,000	 V 			1,606	5070	29,588	0,000	0,745	1,130	0	0	0,000	0,000
11	4,479	4,341	4,587	97443	8336	11,689	0,000	 V 			1,825	1356	110,654	0,000	0,966	1,136	0	0	0,000	0,000
12	4,686	4,587	4,864	103938	9806	10,599	0,000	 V 			1,955	2729	54,970	0,000	0,488	1,071	0	0	0,000	0,000
13	5,024	4,864	5,205	59380	3203	18,536	0,000	 V 			2,168	275	544,740	0,000	0,431	1,109	0	0	0,000	0,000
14	5,505	5,205	5,877	165841	6323	26,229	0,000	 V 			2,471	1105	135,745	0,000	0,514	1,140	0	0	0,000	0,000
15	6,051	5,877	6,197	125285	11232	11,154	0,000	 V 			2,816	5899	25,427	0,000	1,117	1,139	0	0	0,000	0,000
16	6,436	6,197	6,699	3156249	285160	11,068	0,000	 V 			3,059	7321	20,488	1,118	1,252	1,086	0	0	0,000	0,000
17	6,867	6,699	7,595	869257	51369	16,922	0,000	 V 			3,330	5233	28,664	0,000	1,267	1,089	0	0	0,000	0,000
18	7,866	7,595	7,936	79520	4397	18,084	0,000	 V 			3,960	59	2526,010	0,000	0,448	1,189	0	0	0,000	0,000
19	8,033	7,936	8,160	55256	4664	11,847	0,000	 V 			4,066	1162	129,125	0,000	0,066	1,027	0	0	0,000	0,000
20	8,631	8,160	8,757	157152	4885	32,167	0,000	 V 			4,442	226	664,193	0,000	0,369	1,093	0	0	0,000	0,000
21	9,015	8,757	9,205	137740	6114	22,530	0,000	 V 			4,685	1179	127,280	0,000	0,230	1,055	0	0	0,000	0,000
22	9,365	9,205	9,493	81647	5054	16,155	0,000	 V 			4,905	412	364,279	0,000	0,241	1,047	0	0	0,000	0,000
23	9,746	9,493	9,845	173061	11727	14,757	0,000	 V 			5,146	3347	44,814	0,000	0,303	1,049	0	0	0,000	0,000
24	9,922	9,845	10,037	106846	10385	10,289	0,000	 V 			5,256	1366	109,803	0,000	0,201	1,022	0	0	0,000	0,000
25	10,157	10,037	10,219	97386	9696	10,044	0,000	 V 			5,405	628	238,888	0,000	0,175	1,028	0	0	0,000	0,000
26	10,340	10,219	10,389	111694	11831	9,441	0,000	 V 			5,520	641	234,015	0,000	0,113	1,021	0	0	0,000	0,000
27	10,495	10,389	10,848	235357	13812	17,041	0,000	 V 			5,618	3822	39,246	0,000	0,133	1,018	0	0	0,000	0,000
28	11,158	10,848	13,099	7905679	623060	12,688	0,000	SV 			6,036	19530	7,680	1,165	1,329	1,074	0	0	0,000	0,000
29	11,846	11,701	12,043	22395	2099	10,669	0,000	T  			6,470	25275	5,935	0,000	2,229	1,072	0	0	0,000	0,000
30	12,232	12,043	12,437	51131	5100	10,026	0,000	TV 			6,713	30652	4,894	0,000	1,337	1,038	0	0	0,000	0,000
31	12,702	12,459	12,896	45364	3191	14,216	0,000	T  			7,010	17726	8,462	0,000	1,422	1,044	0	0	0,000	0,000
32	13,050	12,896	13,099	2218	206	10,766	0,000	TV 			7,229	56615	2,649	0,000	1,158	1,031	0	0	0,000	0,000
33	13,307	13,099	14,048	3874965	222199	17,439	0,000	 V 			7,391	16011	9,368	2,891	0,804	1,022	0	0	0,000	0,000
34	14,255	14,048	14,581	646899	41544	15,571	0,000	 V 			7,989	26490	5,663	0,000	2,458	1,081	0	0	0,000	0,000
35	14,778	14,581	14,891	265920	18504	14,371	0,000	 V 			8,319	10278	14,594	0,000	1,121	1,041	0	0	0,000	0,000
36	15,041	14,891	15,211	295850	20005	14,789	0,000	 V 			8,485	10875	13,793	0,000	0,454	1,020	0	0	0,000	0,000
37	15,381	15,211	15,541	385288	31419	12,263	0,000	 V 			8,699	30948	4,847	0,000	0,732	1,025	0	0	0,000	0,000
38	15,682	15,541	15,861	254714	16656	15,293	0,000	 V 			8,889	10033	14,951	0,000	0,617	1,022	0	0	0,000	0,000
39	15,945	15,861	16,053	115853	10320	11,226	0,000	 V 			9,055	404	371,112	0,000	0,139	1,019	0	0	0,000	0,000
40	16,324	16,053	16,480	280686	11839	23,708	0,000	 V 			9,294	715	209,860	0,000	0,135	1,026	0	0	0,000	0,000
41	16,523	16,480	16,661	114893	10984	10,460	0,000	 V 			9,419	0	0,000	0,000	0,000	1,013	0	0	0,000	0,000
42	16,918	16,661	17,237	391408	13178	29,702	0,000	 V 			9,668	1703	88,066	0,000	0,000	1,026	0	0	0,000	0,000
43	17,395	17,237	17,461	132464	10069	13,156	0,000	 V 			9,969	95	1582,733	0,000	0,109	1,031	0	0	0,000	0,000
44	17,764	17,461	17,856	259007	11786	21,976	0,000	 V 			10,202	377	398,182	0,000	0,068	1,023	0	0	0,000	0,000
45	17,932	17,856	18,016	109504	11517	9,508	0,000	 V 			10,307	44	3371,697	0,000	0,023	1,010	0	0	0,000	0,000
46	18,198	18,016	18,389	266555	12276	21,713	0,000	 V 			10,475	507	295,651	0,000	0,038	1,016	0	0	0,000	0,000
47	18,521	18,389	18,613	160297	12203	13,135	0,000	 V 			10,679	305	492,198	0,000	0,086	1,019	0	0	0,000	0,000
48	18,783	18,613	18,901	216648	13195	16,418	0,000	 V 			10,844	1138	131,858	0,000	0,081	1,015	0	0	0,000	0,000
49	19,229	18,901	19,456	465235	15601	29,821	0,000	 V 			11,125	1625	92,319	0,000	0,216	1,026	0	0	0,000	0,000
50	19,679	19,456	20,128	1207127	85163	14,174	0,000	 V 			11,410	63229	2,372	0,000	0,406	1,026	0	0	0,000	0,000
51	20,400	20,128	20,683	1741107	144790	12,025	0,000	 V 			11,864	74569	2,012	0,000	2,354	1,040	0	0	0,000	0,000
52	20,755	20,683	20,875	156558	13913	11,252	0,000	 V 			12,088	303	495,329	0,000	0,140	1,019	0	0	0,000	0,000
53	21,090	20,875	21,269	345438	16385	21,083	0,000	 V 			12,299	4365	34,365	0,000	0,111	1,017	0	0	0,000	0,000
54	21,617	21,269	21,909	1215293	77327	15,716	0,000	 V 			12,631	58239	2,576	0,000	0,645	1,027	0	0	0,000	0,000
55	22,091	21,909	22,229	256520	13873	18,491	0,000	 V 			12,930	413	363,591	0,000	0,201	1,024	0	0	0,000	0,000
56	22,309	22,229	22,421	141079	12493	11,293	0,000	 V 			13,067	285	526,502	0,000	0,045	1,011	0	0	0,000	0,000
57	22,475	22,421	22,549	91144	12004	7,593	0,000	 V 			13,172	189	791,957	0,000	0,028	1,008	0	0	0,000	0,000
58	22,785	22,549	23,147	2660249	229141	11,610	0,000	 V 			13,368	94997	1,579	0,000	0,091	1,015	0	0	0,000	0,000
59	23,266	23,147	23,456	219441	12951	16,944	0,000	 V 			13,671	3566	42,060	0,000	0,519	1,023	0	0	0,000	0,000
60	23,648	23,456	23,947	313473	12667	24,746	0,000	 V 			13,912	526	285,202	0,000	0,135	1,018	0	0	0,000	0,000
61	24,180	23,947	24,523	448735	20683	21,696	0,000	 V 			14,247	33270	4,508	0,000	0,228	1,024	0	0	0,000	0,000
62	24,677	24,523	24,832	174890	10311	16,962	0,000	 V 			14,561	5051	29,697	0,000	0,518	1,022	0	0	0,000	0,000
63	25,137	24,832	25,397	362783	15081	24,055	0,000	 V 			14,851	11163	13,438	0,000	0,393	1,020	0	0	0,000	0,000
64	25,620	25,397	25,696	158803	10354	15,337	0,000	 V 			15,155	3077	48,752	0,000	0,345	1,020	0	0	0,000	0,000
65	25,796	25,696	26,507	395364	10910	36,238	0,000	 V 			15,267	1371	109,382	0,000	0,076	1,007	0	0	0,000	0,000
66	26,996	26,507	27,307	341833	9652	35,416	0,000	 V 			16,023	15	9723,914	0,000	0,079	1,050	0	0	0,000	0,000
67	27,448	27,307	27,595	104737	6966	15,035	0,000	 V 			16,308	16430	9,129	0,000	0,032	1,018	0	0	0,000	0,000
68	27,704	27,595	27,947	102168	5591	18,272	0,000	 V 			16,470	2956	50,738	0,000	0,177	1,010	0	0	0,000	0,000
69	28,011	27,947	28,192	53672	3813	14,077	0,000	 V 			16,663	0	0,000	0,000	0,000	1,012	0	0	0,000	0,000
70	28,339	28,192	28,544	70491	3566	19,769	0,000	 V 			16,870	1672	89,737	0,000	0,000	1,012	0	0	0,000	0,000
71	28,663	28,544	28,779	43147	3136	13,758	0,000	 V 			17,074	855	175,501	0,000	0,097	1,012	0	0	0,000	0,000
72	28,789	28,779	29,301	69424	2988	23,237	0,000	 V 			17,154	0	0,000	0,000	0,000	1,005	0	0	0,000	0,000
73	29,647	29,301	30,080	65502	1686	38,861	0,000	 V 			17,695	4177	35,908	0,000	0,000	1,032	0	0	0,000	0,000
74	30,155	30,080	30,539	11666	861	13,546	0,000	 V 			18,015	16	9524,219	0,000	0,032	1,018	0	0	0,000	0,000
75	30,917	30,784	31,093	4085	436	9,373	0,000	   			18,496	204785	0,732	1,145	0,050	1,027	0	0	0,000	0,000
76	32,661	32,480	32,768	9023	989	9,127	0,000	   			19,595	300222	0,500	0,832	6,815	1,059	0	0	0,000	0,000
77	33,973	32,811	34,016	382005	8306	45,991	0,000	   			20,423	5137	29,202	0,000	1,230	1,042	0	0	0,000	0,000
78	34,084	34,016	34,165	68795	7960	8,642	0,000	 V 			20,493	832	180,336	0,000	0,033	1,003	0	0	0,000	0,000
79	34,293	34,165	34,336	74736	7453	10,027	0,000	 V 			20,625	3263	45,966	0,000	0,059	1,006	0	0	0,000	0,000
80	34,494	34,336	34,603	117812	7972	14,778	0,000	 V 			20,751	12270	12,225	0,000	0,110	1,006	0	0	0,000	0,000
81	35,070	34,603	35,413	1068956	121314	8,811	0,000	 V 			21,115	705615	0,213	0,000	0,816	1,018	0	0	0,000	0,000
82	35,489	35,413	35,563	146474	20792	7,045	0,000	 V 			21,379	205472	0,730	0,000	1,743	1,012	0	0	0,000	0,000
83	35,595	35,563	35,733	114505	14950	7,659	0,000	 V 			21,445	68930	2,176	0,000	0,247	1,003	0	0	0,000	0,000
84	35,851	35,733	35,989	135255	10551	12,819	0,000	 V 			21,607	49860	3,008	0,000	0,433	1,008	0	0	0,000	0,000
85	36,038	35,989	36,096	43509	6982	6,232	0,000	 V 			21,725	1716	87,428	0,000	0,091	1,005	0	0	0,000	0,000
86	36,336	36,096	36,480	149794	7856	19,066	0,000	 V 			21,913	15784	9,503	0,000	0,129	1,009	0	0	0,000	0,000
87	36,788	36,480	36,928	101566	3822	26,576	0,000	 V 			22,198	456	328,941	0,000	0,112	1,013	0	0	0,000	0,000
88	37,046	36,928	37,152	31734	3131	10,135	0,000	 V 			22,361	123042	1,219	0,000	0,071	1,007	0	0	0,000	0,000
89	37,234	37,152	37,376	10720	1263	8,486	0,000	 V 			22,479	4593	32,659	0,000	0,143	1,005	0	0	0,000	0,000
90	38,921	38,667	39,979	1034717	37250	27,778	0,000	   			23,543	349521	0,429	2,936	1,371	1,047	0	0	0,000	0,000

[Compound Results(PDA)]
# of IDs	0

[PDA Multi Chromatogram(Ch1)]
# of Points	      4689
Interval(msec)	640
Start Time(min)	0
End Time(min)	50,0053
Intensity Units	mAU
Intensity Multiplier	1
Type	MultiChrom
Wavelength(nm)	254
Bandwidth(nm)	4
R.Time (min)	Intensity
0,00000	0
0,01067	0
0,02133	0
0,03200	0
0,04267	0
0,05333	0
0,06400	0
0,07467	0
0,08533	0
0,09600	0
0,10667	0
0,11733	-11
0,12800	-10
0,13867	-8
0,14933	-1
0,16000	-3
0,17067	-5
0,18133	-9
0,19200	-14
0,20267	-18
0,21333	-18
0,22400	-13
0,23467	-20
0,24533	-20
0,25600	-11
0,26667	-16
0,27733	-14
0,28800	-11
0,29867	-18
0,30933	-9
0,32000	-17
0,33067	-13
0,34133	-19
0,35200	-26
0,36267	-25
0,37333	-28
0,38400	-27
0,39467	-27
0,40533	-28
0,41600	-28
0,42667	-17
0,43733	-19
0,44800	-28
0,45867	-20
0,46933	-25
0,48000	-27
0,49067	-28
0,50133	-31
0,51200	-29
0,52267	-22
0,53333	-20
0,54400	-22
0,55467	-23
0,56533	-25
0,57600	-31
0,58667	-21
0,59733	-24
0,60800	-18
0,61867	-26
0,62933	-27
0,64000	-23
0,65067	-24
0,66133	-30
0,67200	-23
0,68267	-23
0,69333	-21
0,70400	-23
0,71467	-19
0,72533	-22
0,73600	-24
0,74667	-23
0,75733	-23
0,76800	-16
0,77867	-23
0,78933	-18
0,80000	-26
0,81067	-24
0,82133	-20
0,83200	-18
0,84267	-23
0,85333	-25
0,86400	-19
0,87467	-15
0,88533	-17
0,89600	-10
0,90667	-12
0,91733	-13
0,92800	-20
0,93867	-12
0,94933	-11
0,96000	-20
0,97067	-11
0,98133	-16
0,99200	-21
1,00267	-16
1,01333	-19
1,02400	-15
1,03467	-22
1,04533	-19
1,05600	-18
1,06667	-10
1,07733	-9
1,08800	-10
1,09867	-2
1,10933	-10
1,12000	-11
1,13067	-24
1,14133	-13
1,15200	-5
1,16267	1
1,17333	27
1,18400	39
1,19467	67
1,20533	91
1,21600	128
1,22667	171
1,23733	217
1,24800	260
1,25867	303
1,26933	359
1,28000	423
1,29067	502
1,30133	588
1,31200	700
1,32267	834
1,33333	992
1,34400	1160
1,35467	1350
1,36533	1533
1,37600	1719
1,38667	1910
1,39733	2128
1,40800	2382
1,41867	2672
1,42933	3024
1,44000	3441
1,45067	3928
1,46133	4590
1,47200	5475
1,48267	6438
1,49333	7318
1,50400	8062
1,51467	8758
1,52533	9550
1,53600	10534
1,54667	11686
1,55733	12816
1,56800	13729
1,57867	14220
1,58933	14275
1,60000	14010
1,61067	13589
1,62133	13209
1,63200	12888
1,64267	12542
1,65333	12007
1,66400	11201
1,67467	10274
1,68533	9433
1,69600	8950
1,70667	9038
1,71733	9974
1,72800	12322
1,73867	16937
1,74933	23032
1,76000	27182
1,77067	27685
1,78133	25903
1,79200	23879
1,80267	22825
1,81333	22869
1,82400	23570
1,83467	24361
1,84533	24852
1,85600	24814
1,86667	24246
1,87733	23292
1,88800	22130
1,89867	20937
1,90933	19879
1,92000	19080
1,93067	18573
1,94133	18239
1,95200	17874
1,96267	17360
1,97333	16686
1,98400	16002
1,99467	15507
2,00533	15397
2,01600	15962
2,02667	17764
2,03733	21542
2,04800	27644
2,05867	35390
2,06933	43179
2,08000	49146
2,09067	52151
2,10133	52078
2,11200	49647
2,12267	45990
2,13333	42193
2,14400	39030
2,15467	36791
2,16533	35325
2,17600	34281
2,18667	33241
2,19733	32011
2,20800	30659
2,21867	29382
2,22933	28301
2,24000	27370
2,25067	26404
2,26133	25238
2,27200	23805
2,28267	22193
2,29333	20521
2,30400	18899
2,31467	17376
2,32533	15996
2,33600	14757
2,34667	13725
2,35733	12887
2,36800	12218
2,37867	11665
2,38933	11203
2,40000	10825
2,41067	10546
2,42133	10377
2,43200	10337
2,44267	10388
2,45333	10496
2,46400	10608
2,47467	10666
2,48533	10651
2,49600	10533
2,50667	10344
2,51733	10096
2,52800	9819
2,53867	9544
2,54933	9294
2,56000	9111
2,57067	9007
2,58133	9009
2,59200	9126
2,60267	9323
2,61333	9548
2,62400	9727
2,63467	9824
2,64533	9771
2,65600	9583
2,66667	9277
2,67733	8923
2,68800	8548
2,69867	8209
2,70933	7925
2,72000	7707
2,73067	7554
2,74133	7467
2,75200	7432
2,76267	7449
2,77333	7556
2,78400	7809
2,79467	8410
2,80533	9711
2,81600	12116
2,82667	15998
2,83733	21518
2,84800	28319
2,85867	35652
2,86933	42399
2,88000	47538
2,89067	50380
2,90133	50746
2,91200	48889
2,92267	45360
2,93333	40808
2,94400	35867
2,95467	31039
2,96533	26712
2,97600	23047
2,98667	20099
2,99733	17794
3,00800	15999
3,01867	14555
3,02933	13335
3,04000	12253
3,05067	11297
3,06133	10475
3,07200	9780
3,08267	9229
3,09333	8811
3,10400	8503
3,11467	8283
3,12533	8115
3,13600	7984
3,14667	7869
3,15733	7785
3,16800	7686
3,17867	7598
3,18933	7498
3,20000	7393
3,21067	7288
3,22133	7174
3,23200	7063
3,24267	6959
3,25333	6879
3,26400	6834
3,27467	6811
3,28533	6821
3,29600	6871
3,30667	6938
3,31733	7043
3,32800	7187
3,33867	7385
3,34933	7615
3,36000	7862
3,37067	8103
3,38133	8294
3,39200	8433
3,40267	8496
3,41333	8454
3,42400	8336
3,43467	8146
3,44533	7911
3,45600	7665
3,46667	7453
3,47733	7318
3,48800	7295
3,49867	7401
3,50933	7565
3,52000	7608
3,53067	7395
3,54133	6928
3,55200	6342
3,56267	5766
3,57333	5294
3,58400	4948
3,59467	4722
3,60533	4578
3,61600	4512
3,62667	4500
3,63733	4530
3,64800	4597
3,65867	4674
3,66933	4781
3,68000	4910
3,69067	5051
3,70133	5226
3,71200	5423
3,72267	5664
3,73333	5922
3,74400	6222
3,75467	6543
3,76533	6896
3,77600	7261
3,78667	7605
3,79733	7928
3,80800	8217
3,81867	8421
3,82933	8539
3,84000	8579
3,85067	8525
3,86133	8393
3,87200	8194
3,88267	7941
3,89333	7672
3,90400	7384
3,91467	7108
3,92533	6857
3,93600	6629
3,94667	6439
3,95733	6286
3,96800	6176
3,97867	6135
3,98933	6178
4,00000	6380
4,01067	6843
4,02133	7742
4,03200	9306
4,04267	11776
4,05333	15355
4,06400	20137
4,07467	25921
4,08533	32320
4,09600	38635
4,10667	44127
4,11733	48063
4,12800	49969
4,13867	49712
4,14933	47456
4,16000	43654
4,17067	38890
4,18133	33705
4,19200	28600
4,20267	23900
4,21333	19830
4,22400	16438
4,23467	13733
4,24533	11632
4,25600	10060
4,26667	8888
4,27733	8038
4,28800	7433
4,29867	7009
4,30933	6728
4,32000	6541
4,33067	6444
4,34133	6431
4,35200	6481
4,36267	6613
4,37333	6825
4,38400	7117
4,39467	7481
4,40533	7899
4,41600	8364
4,42667	8851
4,43733	9305
4,44800	9714
4,45867	10025
4,46933	10209
4,48000	10266
4,49067	10195
4,50133	9988
4,51200	9672
4,52267	9287
4,53333	8862
4,54400	8426
4,55467	8044
4,56533	7740
4,57600	7548
4,58667	7520
4,59733	7669
4,60800	7997
4,61867	8513
4,62933	9156
4,64000	9872
4,65067	10580
4,66133	11209
4,67200	11649
4,68267	11856
4,69333	11799
4,70400	11500
4,71467	10990
4,72533	10335
4,73600	9588
4,74667	8811
4,75733	8072
4,76800	7391
4,77867	6783
4,78933	6274
4,80000	5848
4,81067	5513
4,82133	5257
4,83200	5068
4,84267	4932
4,85333	4846
4,86400	4798
4,87467	4802
4,88533	4832
4,89600	4881
4,90667	4928
4,91733	5004
4,92800	5078
4,93867	5143
4,94933	5216
4,96000	5280
4,97067	5335
4,98133	5374
4,99200	5408
5,00267	5434
5,01333	5444
5,02400	5451
5,03467	5444
5,04533	5428
5,05600	5408
5,06667	5382
5,07733	5349
5,08800	5302
5,09867	5260
5,10933	5208
5,12000	5147
5,13067	5094
5,14133	5025
5,15200	4980
5,16267	4921
5,17333	4880
5,18400	4839
5,19467	4810
5,20533	4810
5,21600	4798
5,22667	4823
5,23733	4839
5,24800	4863
5,25867	4902
5,26933	4950
5,28000	4992
5,29067	5042
5,30133	5106
5,31200	5173
5,32267	5246
5,33333	5335
5,34400	5435
5,35467	5566
5,36533	5708
5,37600	5903
5,38667	6131
5,39733	6393
5,40800	6685
5,41867	6999
5,42933	7331
5,44000	7656
5,45067	7980
5,46133	8275
5,47200	8517
5,48267	8701
5,49333	8812
5,50400	8851
5,51467	8824
5,52533	8731
5,53600	8601
5,54667	8456
5,55733	8309
5,56800	8192
5,57867	8112
5,58933	8071
5,60000	8068
5,61067	8069
5,62133	8078
5,63200	8070
5,64267	8020
5,65333	7923
5,66400	7782
5,67467	7596
5,68533	7373
5,69600	7146
5,70667	6921
5,71733	6698
5,72800	6497
5,73867	6318
5,74933	6160
5,76000	6018
5,77067	5897
5,78133	5794
5,79200	5711
5,80267	5628
5,81333	5554
5,82400	5484
5,83467	5418
5,84533	5360
5,85600	5315
5,86667	5270
5,87733	5253
5,88800	5253
5,89867	5307
5,90933	5437
5,92000	5659
5,93067	5991
5,94133	6456
5,95200	7071
5,96267	7826
5,97333	8722
5,98400	9707
5,99467	10740
6,00533	11744
6,01600	12643
6,02667	13372
6,03733	13861
6,04800	14079
6,05867	14011
6,06933	13675
6,08000	13113
6,09067	12386
6,10133	11545
6,11200	10661
6,12267	9790
6,13333	8983
6,14400	8251
6,15467	7633
6,16533	7148
6,17600	6782
6,18667	6562
6,19733	6508
6,20800	6658
6,21867	7086
6,22933	7896
6,24000	9255
6,25067	11369
6,26133	14546
6,27200	19145
6,28267	25628
6,29333	34419
6,30400	45991
6,31467	60741
6,32533	78816
6,33600	100228
6,34667	124450
6,35733	150898
6,36800	178359
6,37867	205587
6,38933	230908
6,40000	253023
6,41067	270525
6,42133	282470
6,43200	288231
6,44267	287629
6,45333	280928
6,46400	268707
6,47467	251911
6,48533	231685
6,49600	209131
6,50667	185472
6,51733	161710
6,52800	138892
6,53867	117576
6,54933	98347
6,56000	81366
6,57067	66821
6,58133	54571
6,59200	44479
6,60267	36259
6,61333	29705
6,62400	24523
6,63467	20486
6,64533	17369
6,65600	15009
6,66667	13265
6,67733	12035
6,68800	11270
6,69867	10937
6,70933	11080
6,72000	11765
6,73067	13070
6,74133	15079
6,75200	17840
6,76267	21357
6,77333	25525
6,78400	30196
6,79467	35074
6,80533	39896
6,81600	44339
6,82667	48163
6,83733	51174
6,84800	53274
6,85867	54431
6,86933	54692
6,88000	54136
6,89067	52909
6,90133	51112
6,91200	48930
6,92267	46439
6,93333	43778
6,94400	41028
6,95467	38284
6,96533	35606
6,97600	33047
6,98667	30617
6,99733	28359
7,00800	26278
7,01867	24367
7,02933	22647
7,04000	21110
7,05067	19745
7,06133	18539
7,07200	17501
7,08267	16613
7,09333	15859
7,10400	15229
7,11467	14688
7,12533	14231
7,13600	13826
7,14667	13453
7,15733	13105
7,16800	12756
7,17867	12392
7,18933	12032
7,20000	11653
7,21067	11269
7,22133	10884
7,23200	10498
7,24267	10134
7,25333	9797
7,26400	9480
7,27467	9207
7,28533	8953
7,29600	8732
7,30667	8555
7,31733	8411
7,32800	8294
7,33867	8201
7,34933	8124
7,36000	8054
7,37067	8001
7,38133	7943
7,39200	7896
7,40267	7842
7,41333	7791
7,42400	7746
7,43467	7685
7,44533	7631
7,45600	7583
7,46667	7535
7,47733	7475
7,48800	7428
7,49867	7381
7,50933	7344
7,52000	7316
7,53067	7280
7,54133	7255
7,55200	7231
7,56267	7217
7,57333	7210
7,58400	7209
7,59467	7203
7,60533	7217
7,61600	7230
7,62667	7245
7,63733	7261
7,64800	7279
7,65867	7300
7,66933	7321
7,68000	7339
7,69067	7357
7,70133	7372
7,71200	7391
7,72267	7418
7,73333	7457
7,74400	7502
7,75467	7553
7,76533	7623
7,77600	7693
7,78667	7772
7,79733	7869
7,80800	7956
7,81867	8058
7,82933	8146
7,84000	8226
7,85067	8276
7,86133	8303
7,87200	8302
7,88267	8282
7,89333	8239
7,90400	8167
7,91467	8108
7,92533	8057
7,93600	8026
7,94667	8036
7,95733	8065
7,96800	8140
7,97867	8232
7,98933	8346
8,00000	8459
8,01067	8561
8,02133	8637
8,03200	8667
8,04267	8649
8,05333	8579
8,06400	8466
8,07467	8324
8,08533	8158
8,09600	7978
8,10667	7813
8,11733	7645
8,12800	7534
8,13867	7458
8,14933	7419
8,16000	7417
8,17067	7449
8,18133	7505
8,19200	7581
8,20267	7656
8,21333	7732
8,22400	7802
8,23467	7854
8,24533	7897
8,25600	7922
8,26667	7938
8,27733	7945
8,28800	7967
8,29867	7994
8,30933	8034
8,32000	8099
8,33067	8168
8,34133	8256
8,35200	8349
8,36267	8445
8,37333	8546
8,38400	8646
8,39467	8729
8,40533	8793
8,41600	8849
8,42667	8892
8,43733	8922
8,44800	8948
8,45867	8952
8,46933	8960
8,48000	8959
8,49067	8962
8,50133	8976
8,51200	8981
8,52267	8991
8,53333	9010
8,54400	9031
8,55467	9060
8,56533	9094
8,57600	9128
8,58667	9160
8,59733	9188
8,60800	9216
8,61867	9229
8,62933	9237
8,64000	9232
8,65067	9208
8,66133	9178
8,67200	9135
8,68267	9099
8,69333	9058
8,70400	9017
8,71467	8981
8,72533	8946
8,73600	8927
8,74667	8905
8,75733	8884
8,76800	8884
8,77867	8890
8,78933	8911
8,80000	8936
8,81067	8986
8,82133	9045
8,83200	9115
8,84267	9199
8,85333	9295
8,86400	9402
8,87467	9510
8,88533	9621
8,89600	9740
8,90667	9853
8,91733	9962
8,92800	10079
8,93867	10187
8,94933	10286
8,96000	10385
8,97067	10476
8,98133	10560
8,99200	10625
9,00267	10668
9,01333	10690
9,02400	10680
9,03467	10634
9,04533	10566
9,05600	10468
9,06667	10342
9,07733	10197
9,08800	10038
9,09867	9861
9,10933	9685
9,12000	9498
9,13067	9331
9,14133	9171
9,15200	9017
9,16267	8896
9,17333	8800
9,18400	8724
9,19467	8688
9,20533	8680
9,21600	8711
9,22667	8765
9,23733	8852
9,24800	8954
9,25867	9080
9,26933	9207
9,28000	9339
9,29067	9465
9,30133	9573
9,31200	9657
9,32267	9722
9,33333	9779
9,34400	9809
9,35467	9826
9,36533	9834
9,37600	9824
9,38667	9803
9,39733	9767
9,40800	9732
9,41867	9697
9,42933	9657
9,44000	9622
9,45067	9576
9,46133	9553
9,47200	9536
9,48267	9526
9,49333	9522
9,50400	9533
9,51467	9547
9,52533	9557
9,53600	9593
9,54667	9639
9,55733	9700
9,56800	9788
9,57867	9924
9,58933	10096
9,60000	10337
9,61067	10642
9,62133	11023
9,63200	11490
9,64267	12041
9,65333	12638
9,66400	13282
9,67467	13954
9,68533	14603
9,69600	15218
9,70667	15774
9,71733	16207
9,72800	16522
9,73867	16705
9,74933	16730
9,76000	16628
9,77067	16411
9,78133	16111
9,79200	15762
9,80267	15408
9,81333	15090
9,82400	14830
9,83467	14653
9,84533	14573
9,85600	14599
9,86667	14715
9,87733	14893
9,88800	15100
9,89867	15288
9,90933	15427
9,92000	15490
9,93067	15458
9,94133	15307
9,95200	15059
9,96267	14720
9,97333	14324
9,98400	13894
9,99467	13493
10,00533	13135
10,01600	12862
10,02667	12675
10,03733	12601
10,04800	12639
10,05867	12781
10,06933	13005
10,08000	13305
10,09067	13634
10,10133	13966
10,11200	14279
10,12267	14542
10,13333	14739
10,14400	14884
10,15467	14938
10,16533	14916
10,17600	14842
10,18667	14753
10,19733	14658
10,20800	14572
10,21867	14542
10,22933	14575
10,24000	14692
10,25067	14895
10,26133	15178
10,27200	15538
10,28267	15909
10,29333	16288
10,30400	16626
10,31467	16904
10,32533	17102
10,33600	17180
10,34667	17173
10,35733	17092
10,36800	16976
10,37867	16860
10,38933	16779
10,40000	16787
10,41067	16890
10,42133	17093
10,43200	17409
10,44267	17795
10,45333	18215
10,46400	18611
10,47467	18960
10,48533	19184
10,49600	19251
10,50667	19141
10,51733	18839
10,52800	18357
10,53867	17714
10,54933	16965
10,56000	16157
10,57067	15325
10,58133	14521
10,59200	13782
10,60267	13135
10,61333	12601
10,62400	12174
10,63467	11853
10,64533	11633
10,65600	11496
10,66667	11428
10,67733	11392
10,68800	11383
10,69867	11383
10,70933	11379
10,72000	11369
10,73067	11351
10,74133	11316
10,75200	11276
10,76267	11220
10,77333	11158
10,78400	11094
10,79467	11017
10,80533	10938
10,81600	10867
10,82667	10805
10,83733	10752
10,84800	10724
10,85867	10729
10,86933	10770
10,88000	10876
10,89067	11083
10,90133	11428
10,91200	11936
10,92267	12715
10,93333	13906
10,94400	15731
10,95467	18492
10,96533	22709
10,97600	29011
10,98667	38315
10,99733	51534
11,00800	69843
11,01867	94131
11,02933	125316
11,04000	163573
11,05067	208805
11,06133	259823
11,07200	315273
11,08267	372819
11,09333	430080
11,10400	484174
11,11467	532531
11,12533	572852
11,13600	603143
11,14667	622096
11,15733	628886
11,16800	623538
11,17867	606782
11,18933	579767
11,20000	544503
11,21067	502825
11,22133	457205
11,23200	409539
11,24267	362010
11,25333	315992
11,26400	272840
11,27467	233211
11,28533	197733
11,29600	166560
11,30667	139567
11,31733	116570
11,32800	97174
11,33867	81080
11,34933	67787
11,36000	56895
11,37067	47990
11,38133	40789
11,39200	34962
11,40267	30270
11,41333	26490
11,42400	23460
11,43467	21062
11,44533	19165
11,45600	17661
11,46667	16489
11,47733	15589
11,48800	14901
11,49867	14387
11,50933	14007
11,52000	13726
11,53067	13515
11,54133	13355
11,55200	13237
11,56267	13126
11,57333	13026
11,58400	12940
11,59467	12838
11,60533	12741
11,61600	12650
11,62667	12549
11,63733	12443
11,64800	12327
11,65867	12219
11,66933	12127
11,68000	12053
11,69067	12003
11,70133	11982
11,71200	11993
11,72267	12052
11,73333	12148
11,74400	12294
11,75467	12476
11,76533	12690
11,77600	12937
11,78667	13160
11,79733	13376
11,80800	13563
11,81867	13726
11,82933	13831
11,84000	13882
11,85067	13884
11,86133	13850
11,87200	13773
11,88267	13656
11,89333	13516
11,90400	13354
11,91467	13200
11,92533	13020
11,93600	12848
11,94667	12685
11,95733	12538
11,96800	12395
11,97867	12275
11,98933	12153
12,00000	12063
12,01067	11985
12,02133	11929
12,03200	11879
12,04267	11842
12,05333	11840
12,06400	11846
12,07467	11884
12,08533	11969
12,09600	12109
12,10667	12289
12,11733	12534
12,12800	12847
12,13867	13226
12,14933	13650
12,16000	14115
12,17067	14600
12,18133	15075
12,19200	15510
12,20267	15890
12,21333	16171
12,22400	16324
12,23467	16358
12,24533	16256
12,25600	16031
12,26667	15695
12,27733	15278
12,28800	14802
12,29867	14300
12,30933	13798
12,32000	13335
12,33067	12898
12,34133	12514
12,35200	12191
12,36267	11912
12,37333	11670
12,38400	11490
12,39467	11332
12,40533	11198
12,41600	11100
12,42667	11027
12,43733	10978
12,44800	10964
12,45867	10976
12,46933	11028
12,48000	11108
12,49067	11219
12,50133	11379
12,51200	11563
12,52267	11785
12,53333	12027
12,54400	12279
12,55467	12560
12,56533	12833
12,57600	13093
12,58667	13354
12,59733	13599
12,60800	13826
12,61867	14045
12,62933	14236
12,64000	14402
12,65067	14553
12,66133	14679
12,67200	14786
12,68267	14860
12,69333	14917
12,70400	14921
12,71467	14912
12,72533	14858
12,73600	14776
12,74667	14649
12,75733	14497
12,76800	14318
12,77867	14120
12,78933	13908
12,80000	13696
12,81067	13482
12,82133	13279
12,83200	13087
12,84267	12921
12,85333	12785
12,86400	12674
12,87467	12596
12,88533	12541
12,89600	12504
12,90667	12498
12,91733	12521
12,92800	12542
12,93867	12583
12,94933	12631
12,96000	12683
12,97067	12742
12,98133	12804
12,99200	12864
13,00267	12921
13,01333	12967
13,02400	12988
13,03467	13009
13,04533	13013
13,05600	13013
13,06667	13001
13,07733	12990
13,08800	12977
13,09867	12958
13,10933	12969
13,12000	12986
13,13067	13046
13,14133	13192
13,15200	13555
13,16267	14510
13,17333	16757
13,18400	21659
13,19467	30994
13,20533	46540
13,21600	68773
13,22667	96556
13,23733	126893
13,24800	156412
13,25867	182147
13,26933	202344
13,28000	216564
13,29067	225192
13,30133	229097
13,31200	229279
13,32267	226599
13,33333	221891
13,34400	215661
13,35467	208436
13,36533	200498
13,37600	192131
13,38667	183506
13,39733	174786
13,40800	166108
13,41867	157575
13,42933	149259
13,44000	141206
13,45067	133492
13,46133	126094
13,47200	119071
13,48267	112379
13,49333	106050
13,50400	100054
13,51467	94377
13,52533	88984
13,53600	83891
13,54667	79047
13,55733	74493
13,56800	70173
13,57867	66115
13,58933	62296
13,60000	58730
13,61067	55416
13,62133	52357
13,63200	49526
13,64267	46923
13,65333	44559
13,66400	42407
13,67467	40462
13,68533	38673
13,69600	37048
13,70667	35557
13,71733	34195
13,72800	32924
13,73867	31742
13,74933	30618
13,76000	29561
13,77067	28554
13,78133	27594
13,79200	26673
13,80267	25808
13,81333	25001
13,82400	24228
13,83467	23522
13,84533	22863
13,85600	22232
13,86667	21646
13,87733	21088
13,88800	20557
13,89867	20056
13,90933	19567
13,92000	19110
13,93067	18686
13,94133	18288
13,95200	17923
13,96267	17585
13,97333	17290
13,98400	17028
13,99467	16814
14,00533	16634
14,01600	16486
14,02667	16379
14,03733	16320
14,04800	16313
14,05867	16380
14,06933	16526
14,08000	16770
14,09067	17169
14,10133	17762
14,11200	18613
14,12267	19758
14,13333	21283
14,14400	23203
14,15467	25546
14,16533	28313
14,17600	31426
14,18667	34773
14,19733	38184
14,20800	41460
14,21867	44384
14,22933	46746
14,24000	48386
14,25067	49177
14,26133	49078
14,27200	48131
14,28267	46441
14,29333	44143
14,30400	41478
14,31467	38609
14,32533	35734
14,33600	33015
14,34667	30558
14,35733	28455
14,36800	26719
14,37867	25360
14,38933	24351
14,40000	23626
14,41067	23108
14,42133	22736
14,43200	22439
14,44267	22156
14,45333	21851
14,46400	21478
14,47467	21058
14,48533	20584
14,49600	20083
14,50667	19583
14,51733	19110
14,52800	18675
14,53867	18321
14,54933	18056
14,56000	17872
14,57067	17765
14,58133	17739
14,59200	17788
14,60267	17893
14,61333	18039
14,62400	18242
14,63467	18505
14,64533	18818
14,65600	19211
14,66667	19688
14,67733	20260
14,68800	20931
14,69867	21699
14,70933	22539
14,72000	23417
14,73067	24289
14,74133	25083
14,75200	25742
14,76267	26211
14,77333	26442
14,78400	26428
14,79467	26165
14,80533	25681
14,81600	25025
14,82667	24279
14,83733	23506
14,84800	22775
14,85867	22138
14,86933	21646
14,88000	21342
14,89067	21216
14,90133	21273
14,91200	21500
14,92267	21884
14,93333	22384
14,94400	22998
14,95467	23688
14,96533	24420
14,97600	25157
14,98667	25883
14,99733	26569
15,00800	27165
15,01867	27641
15,02933	27956
15,04000	28096
15,05067	28016
15,06133	27707
15,07200	27183
15,08267	26468
15,09333	25585
15,10400	24599
15,11467	23541
15,12533	22479
15,13600	21468
15,14667	20536
15,15733	19718
15,16800	19037
15,17867	18487
15,18933	18095
15,20000	17866
15,21067	17785
15,22133	17882
15,23200	18162
15,24267	18662
15,25333	19417
15,26400	20457
15,27467	21812
15,28533	23472
15,29600	25450
15,30667	27682
15,31733	30091
15,32800	32528
15,33867	34851
15,34933	36867
15,36000	38436
15,37067	39409
15,38133	39709
15,39200	39325
15,40267	38295
15,41333	36724
15,42400	34742
15,43467	32516
15,44533	30221
15,45600	27991
15,46667	25939
15,47733	24149
15,48800	22668
15,49867	21498
15,50933	20635
15,52000	20049
15,53067	19701
15,54133	19575
15,55200	19633
15,56267	19834
15,57333	20172
15,58400	20628
15,59467	21176
15,60533	21778
15,61600	22428
15,62667	23094
15,63733	23707
15,64800	24266
15,65867	24697
15,66933	24993
15,68000	25121
15,69067	25062
15,70133	24835
15,71200	24445
15,72267	23927
15,73333	23318
15,74400	22656
15,75467	21986
15,76533	21332
15,77600	20710
15,78667	20164
15,79733	19689
15,80800	19287
15,81867	18976
15,82933	18749
15,84000	18612
15,85067	18525
15,86133	18495
15,87200	18520
15,88267	18573
15,89333	18653
15,90400	18743
15,91467	18828
15,92533	18892
15,93600	18929
15,94667	18940
15,95733	18922
15,96800	18877
15,97867	18799
15,98933	18717
16,00000	18628
16,01067	18544
16,02133	18475
16,03200	18432
16,04267	18412
16,05333	18411
16,06400	18431
16,07467	18476
16,08533	18528
16,09600	18590
16,10667	18647
16,11733	18717
16,12800	18781
16,13867	18843
16,14933	18916
16,16000	19006
16,17067	19102
16,18133	19221
16,19200	19344
16,20267	19472
16,21333	19622
16,22400	19774
16,23467	19933
16,24533	20080
16,25600	20225
16,26667	20354
16,27733	20467
16,28800	20556
16,29867	20619
16,30933	20665
16,32000	20680
16,33067	20678
16,34133	20648
16,35200	20610
16,36267	20545
16,37333	20463
16,38400	20380
16,39467	20290
16,40533	20206
16,41600	20126
16,42667	20059
16,43733	20000
16,44800	19969
16,45867	19947
16,46933	19939
16,48000	19935
16,49067	19939
16,50133	19941
16,51200	19948
16,52267	19940
16,53333	19920
16,54400	19889
16,55467	19833
16,56533	19759
16,57600	19666
16,58667	19563
16,59733	19445
16,60800	19310
16,61867	19187
16,62933	19087
16,64000	18997
16,65067	18929
16,66133	18895
16,67200	18898
16,68267	18935
16,69333	19011
16,70400	19108
16,71467	19241
16,72533	19402
16,73600	19572
16,74667	19762
16,75733	19956
16,76800	20145
16,77867	20339
16,78933	20526
16,80000	20707
16,81067	20879
16,82133	21066
16,83200	21242
16,84267	21426
16,85333	21612
16,86400	21799
16,87467	21986
16,88533	22138
16,89600	22254
16,90667	22337
16,91733	22364
16,92800	22340
16,93867	22264
16,94933	22136
16,96000	21977
16,97067	21802
16,98133	21618
16,99200	21462
17,00267	21318
17,01333	21205
17,02400	21100
17,03467	21020
17,04533	20954
17,05600	20884
17,06667	20795
17,07733	20696
17,08800	20578
17,09867	20446
17,10933	20279
17,12000	20104
17,13067	19920
17,14133	19729
17,15200	19541
17,16267	19368
17,17333	19213
17,18400	19073
17,19467	18958
17,20533	18866
17,21600	18796
17,22667	18756
17,23733	18747
17,24800	18759
17,25867	18792
17,26933	18848
17,28000	18923
17,29067	19003
17,30133	19092
17,31200	19191
17,32267	19280
17,33333	19354
17,34400	19420
17,35467	19463
17,36533	19506
17,37600	19527
17,38667	19532
17,39733	19533
17,40800	19529
17,41867	19516
17,42933	19496
17,44000	19483
17,45067	19473
17,46133	19464
17,47200	19475
17,48267	19481
17,49333	19504
17,50400	19533
17,51467	19575
17,52533	19619
17,53600	19667
17,54667	19723
17,55733	19777
17,56800	19842
17,57867	19905
17,58933	19964
17,60000	20030
17,61067	20111
17,62133	20195
17,63200	20283
17,64267	20394
17,65333	20509
17,66400	20634
17,67467	20765
17,68533	20896
17,69600	21024
17,70667	21144
17,71733	21257
17,72800	21345
17,73867	21399
17,74933	21441
17,76000	21466
17,77067	21463
17,78133	21438
17,79200	21391
17,80267	21338
17,81333	21278
17,82400	21226
17,83467	21189
17,84533	21163
17,85600	21155
17,86667	21161
17,87733	21180
17,88800	21205
17,89867	21232
17,90933	21262
17,92000	21275
17,93067	21295
17,94133	21281
17,95200	21247
17,96267	21208
17,97333	21165
17,98400	21118
17,99467	21081
18,00533	21056
18,01600	21043
18,02667	21056
18,03733	21100
18,04800	21152
18,05867	21234
18,06933	21330
18,08000	21437
18,09067	21550
18,10133	21678
18,11200	21791
18,12267	21903
18,13333	22006
18,14400	22074
18,15467	22131
18,16533	22169
18,17600	22196
18,18667	22198
18,19733	22210
18,20800	22199
18,21867	22194
18,22933	22189
18,24000	22181
18,25067	22176
18,26133	22164
18,27200	22136
18,28267	22103
18,29333	22049
18,30400	21999
18,31467	21932
18,32533	21864
18,33600	21783
18,34667	21713
18,35733	21640
18,36800	21596
18,37867	21572
18,38933	21557
18,40000	21568
18,41067	21598
18,42133	21647
18,43200	21725
18,44267	21813
18,45333	21910
18,46400	22003
18,47467	22097
18,48533	22189
18,49600	22251
18,50667	22301
18,51733	22325
18,52800	22319
18,53867	22297
18,54933	22258
18,56000	22201
18,57067	22135
18,58133	22083
18,59200	22042
18,60267	22016
18,61333	22009
18,62400	22020
18,63467	22057
18,64533	22119
18,65600	22190
18,66667	22278
18,67733	22388
18,68800	22519
18,69867	22651
18,70933	22789
18,72000	22932
18,73067	23066
18,74133	23192
18,75200	23308
18,76267	23388
18,77333	23447
18,78400	23470
18,79467	23430
18,80533	23368
18,81600	23268
18,82667	23149
18,83733	23009
18,84800	22854
18,85867	22719
18,86933	22588
18,88000	22498
18,89067	22429
18,90133	22406
18,91200	22419
18,92267	22472
18,93333	22564
18,94400	22671
18,95467	22812
18,96533	22979
18,97600	23154
18,98667	23340
18,99733	23525
19,00800	23711
19,01867	23879
19,02933	24056
19,04000	24206
19,05067	24351
19,06133	24473
19,07200	24596
19,08267	24704
19,09333	24810
19,10400	24900
19,11467	25010
19,12533	25116
19,13600	25222
19,14667	25355
19,15733	25498
19,16800	25642
19,17867	25778
19,18933	25902
19,20000	25998
19,21067	26080
19,22133	26127
19,23200	26136
19,24267	26105
19,25333	26031
19,26400	25927
19,27467	25801
19,28533	25659
19,29600	25503
19,30667	25329
19,31733	25162
19,32800	24971
19,33867	24774
19,34933	24570
19,36000	24364
19,37067	24167
19,38133	23972
19,39200	23783
19,40267	23603
19,41333	23437
19,42400	23295
19,43467	23176
19,44533	23082
19,45600	23029
19,46667	23029
19,47733	23088
19,48800	23261
19,49867	23604
19,50933	24177
19,52000	25084
19,53067	26451
19,54133	28411
19,55200	31112
19,56267	34710
19,57333	39264
19,58400	44836
19,59467	51325
19,60533	58574
19,61600	66238
19,62667	73927
19,63733	81122
19,64800	87339
19,65867	92097
19,66933	95040
19,68000	95960
19,69067	94838
19,70133	91826
19,71200	87250
19,72267	81467
19,73333	74966
19,74400	68149
19,75467	61449
19,76533	55113
19,77600	49396
19,78667	44364
19,79733	40076
19,80800	36514
19,81867	33600
19,82933	31241
19,84000	29368
19,85067	27882
19,86133	26717
19,87200	25809
19,88267	25105
19,89333	24561
19,90400	24160
19,91467	23859
19,92533	23633
19,93600	23470
19,94667	23364
19,95733	23291
19,96800	23245
19,97867	23218
19,98933	23202
20,00000	23197
20,01067	23190
20,02133	23191
20,03200	23187
20,04267	23171
20,05333	23157
20,06400	23142
20,07467	23126
20,08533	23105
20,09600	23093
20,10667	23078
20,11733	23062
20,12800	23060
20,13867	23070
20,14933	23102
20,16000	23160
20,17067	23262
20,18133	23417
20,19200	23702
20,20267	24135
20,21333	24814
20,22400	25855
20,23467	27409
20,24533	29680
20,25600	32886
20,26667	37307
20,27733	43145
20,28800	50640
20,29867	59850
20,30933	70784
20,32000	83150
20,33067	96570
20,34133	110327
20,35200	123684
20,36267	135692
20,37333	145528
20,38400	152465
20,39467	156008
20,40533	155928
20,41600	152353
20,42667	145631
20,43733	136434
20,44800	125410
20,45867	113445
20,46933	101185
20,48000	89304
20,49067	78220
20,50133	68308
20,51200	59670
20,52267	52363
20,53333	46295
20,54400	41381
20,55467	37442
20,56533	34319
20,57600	31891
20,58667	29986
20,59733	28546
20,60800	27444
20,61867	26623
20,62933	26016
20,64000	25591
20,65067	25317
20,66133	25142
20,67200	25063
20,68267	25042
20,69333	25064
20,70400	25113
20,71467	25178
20,72533	25240
20,73600	25292
20,74667	25329
20,75733	25339
20,76800	25311
20,77867	25268
20,78933	25197
20,80000	25110
20,81067	24998
20,82133	24889
20,83200	24779
20,84267	24687
20,85333	24615
20,86400	24565
20,87467	24556
20,88533	24570
20,89600	24630
20,90667	24746
20,91733	24877
20,92800	25058
20,93867	25249
20,94933	25471
20,96000	25711
20,97067	25970
20,98133	26232
20,99200	26496
21,00267	26752
21,01333	26999
21,02400	27232
21,03467	27451
21,04533	27623
21,05600	27780
21,06667	27891
21,07733	27975
21,08800	28006
21,09867	27990
21,10933	27922
21,12000	27782
21,13067	27589
21,14133	27345
21,15200	27042
21,16267	26697
21,17333	26342
21,18400	25962
21,19467	25594
21,20533	25246
21,21600	24950
21,22667	24695
21,23733	24508
21,24800	24372
21,25867	24297
21,26933	24279
21,28000	24312
21,29067	24380
21,30133	24471
21,31200	24579
21,32267	24705
21,33333	24827
21,34400	24968
21,35467	25109
21,36533	25272
21,37600	25454
21,38667	25684
21,39733	25973
21,40800	26349
21,41867	26863
21,42933	27546
21,44000	28474
21,45067	29715
21,46133	31352
21,47200	33475
21,48267	36154
21,49333	39468
21,50400	43435
21,51467	48045
21,52533	53203
21,53600	58805
21,54667	64634
21,55733	70448
21,56800	75932
21,57867	80803
21,58933	84765
21,60000	87605
21,61067	89128
21,62133	89256
21,63200	88007
21,64267	85480
21,65333	81844
21,66400	77377
21,67467	72282
21,68533	66876
21,69600	61389
21,70667	56068
21,71733	51054
21,72800	46493
21,73867	42436
21,74933	38941
21,76000	35992
21,77067	33547
21,78133	31556
21,79200	29965
21,80267	28720
21,81333	27753
21,82400	27022
21,83467	26481
21,84533	26088
21,85600	25808
21,86667	25617
21,87733	25496
21,88800	25410
21,89867	25372
21,90933	25363
21,92000	25382
21,93067	25412
21,94133	25446
21,95200	25490
21,96267	25534
21,97333	25581
21,98400	25630
21,99467	25676
22,00533	25730
22,01600	25767
22,02667	25818
22,03733	25866
22,04800	25916
22,05867	25976
22,06933	26026
22,08000	26065
22,09067	26078
22,10133	26065
22,11200	26019
22,12267	25939
22,13333	25818
22,14400	25666
22,15467	25504
22,16533	25320
22,17600	25134
22,18667	24965
22,19733	24827
22,20800	24710
22,21867	24635
22,22933	24587
22,24000	24588
22,25067	24599
22,26133	24636
22,27200	24693
22,28267	24754
22,29333	24796
22,30400	24825
22,31467	24822
22,32533	24801
22,33600	24747
22,34667	24671
22,35733	24581
22,36800	24488
22,37867	24402
22,38933	24334
22,40000	24293
22,41067	24278
22,42133	24276
22,43200	24304
22,44267	24333
22,45333	24366
22,46400	24404
22,47467	24432
22,48533	24420
22,49600	24401
22,50667	24341
22,51733	24259
22,52800	24192
22,53867	24112
22,54933	24067
22,56000	24095
22,57067	24242
22,58133	24588
22,59200	25263
22,60267	26419
22,61333	28289
22,62400	31183
22,63467	35457
22,64533	41528
22,65600	49791
22,66667	60661
22,67733	74324
22,68800	90924
22,69867	110152
22,70933	131461
22,72000	153938
22,73067	176334
22,74133	197378
22,75200	215510
22,76267	229525
22,77333	238453
22,78400	241751
22,79467	239368
22,80533	231673
22,81600	219490
22,82667	203822
22,83733	185928
22,84800	166880
22,85867	147851
22,86933	129597
22,88000	112771
22,89067	97751
22,90133	84702
22,91200	73640
22,92267	64396
22,93333	56821
22,94400	50656
22,95467	45685
22,96533	41656
22,97600	38406
22,98667	35772
22,99733	33619
23,00800	31848
23,01867	30378
23,02933	29165
23,04000	28144
23,05067	27291
23,06133	26580
23,07200	26006
23,08267	25530
23,09333	25163
23,10400	24876
23,11467	24672
23,12533	24532
23,13600	24468
23,14667	24445
23,15733	24487
23,16800	24574
23,17867	24706
23,18933	24866
23,20000	25053
23,21067	25239
23,22133	25421
23,23200	25587
23,24267	25714
23,25333	25807
23,26400	25842
23,27467	25826
23,28533	25746
23,29600	25641
23,30667	25474
23,31733	25275
23,32800	25061
23,33867	24833
23,34933	24613
23,36000	24396
23,37067	24184
23,38133	23993
23,39200	23835
23,40267	23695
23,41333	23588
23,42400	23510
23,43467	23457
23,44533	23441
23,45600	23435
23,46667	23447
23,47733	23475
23,48800	23514
23,49867	23576
23,50933	23647
23,52000	23729
23,53067	23834
23,54133	23962
23,55200	24116
23,56267	24291
23,57333	24504
23,58400	24749
23,59467	24990
23,60533	25219
23,61600	25437
23,62667	25613
23,63733	25739
23,64800	25781
23,65867	25742
23,66933	25621
23,68000	25419
23,69067	25174
23,70133	24877
23,71200	24560
23,72267	24244
23,73333	23934
23,74400	23650
23,75467	23402
23,76533	23198
23,77600	23046
23,78667	22913
23,79733	22822
23,80800	22759
23,81867	22719
23,82933	22685
23,84000	22659
23,85067	22643
23,86133	22632
23,87200	22606
23,88267	22579
23,89333	22551
23,90400	22523
23,91467	22495
23,92533	22469
23,93600	22455
23,94667	22445
23,95733	22470
23,96800	22516
23,97867	22610
23,98933	22735
24,00000	22918
24,01067	23173
24,02133	23501
24,03200	23926
24,04267	24446
24,05333	25062
24,06400	25778
24,07467	26622
24,08533	27536
24,09600	28540
24,10667	29565
24,11733	30583
24,12800	31562
24,13867	32438
24,14933	33165
24,16000	33711
24,17067	34028
24,18133	34106
24,19200	33958
24,20267	33568
24,21333	32989
24,22400	32244
24,23467	31402
24,24533	30492
24,25600	29560
24,26667	28643
24,27733	27781
24,28800	26999
24,29867	26303
24,30933	25709
24,32000	25204
24,33067	24778
24,34133	24433
24,35200	24137
24,36267	23905
24,37333	23706
24,38400	23535
24,39467	23398
24,40533	23263
24,41600	23147
24,42667	23049
24,43733	22967
24,44800	22874
24,45867	22791
24,46933	22739
24,48000	22690
24,49067	22659
24,50133	22626
24,51200	22606
24,52267	22604
24,53333	22617
24,54400	22649
24,55467	22699
24,56533	22776
24,57600	22872
24,58667	22991
24,59733	23131
24,60800	23300
24,61867	23459
24,62933	23624
24,64000	23768
24,65067	23886
24,66133	23970
24,67200	24024
24,68267	24022
24,69333	23973
24,70400	23876
24,71467	23750
24,72533	23579
24,73600	23388
24,74667	23177
24,75733	22973
24,76800	22772
24,77867	22583
24,78933	22419
24,80000	22279
24,81067	22178
24,82133	22121
24,83200	22106
24,84267	22134
24,85333	22215
24,86400	22333
24,87467	22496
24,88533	22694
24,89600	22919
24,90667	23161
24,91733	23431
24,92800	23686
24,93867	23939
24,94933	24169
24,96000	24374
24,97067	24550
24,98133	24717
24,99200	24864
25,00267	25031
25,01333	25206
25,02400	25422
25,03467	25699
25,04533	26041
25,05600	26428
25,06667	26864
25,07733	27340
25,08800	27808
25,09867	28239
25,10933	28612
25,12000	28893
25,13067	29049
25,14133	29064
25,15200	28956
25,16267	28713
25,17333	28368
25,18400	27913
25,19467	27372
25,20533	26790
25,21600	26182
25,22667	25564
25,23733	24952
25,24800	24369
25,25867	23829
25,26933	23334
25,28000	22899
25,29067	22513
25,30133	22183
25,31200	21910
25,32267	21680
25,33333	21490
25,34400	21340
25,35467	21225
25,36533	21136
25,37600	21070
25,38667	21029
25,39733	21008
25,40800	21022
25,41867	21042
25,42933	21087
25,44000	21153
25,45067	21254
25,46133	21384
25,47200	21531
25,48267	21719
25,49333	21939
25,50400	22187
25,51467	22459
25,52533	22750
25,53600	23053
25,54667	23367
25,55733	23671
25,56800	23949
25,57867	24185
25,58933	24388
25,60000	24520
25,61067	24599
25,62133	24618
25,63200	24582
25,64267	24500
25,65333	24417
25,66400	24329
25,67467	24243
25,68533	24189
25,69600	24184
25,70667	24219
25,71733	24305
25,72800	24440
25,73867	24611
25,74933	24794
25,76000	24961
25,77067	25114
25,78133	25222
25,79200	25277
25,80267	25269
25,81333	25196
25,82400	25067
25,83467	24880
25,84533	24647
25,85600	24405
25,86667	24165
25,87733	23921
25,88800	23710
25,89867	23532
25,90933	23385
25,92000	23273
25,93067	23194
25,94133	23120
25,95200	23074
25,96267	23035
25,97333	23006
25,98400	22970
25,99467	22930
26,00533	22892
26,01600	22839
26,02667	22780
26,03733	22712
26,04800	22642
26,05867	22580
26,06933	22499
26,08000	22419
26,09067	22342
26,10133	22256
26,11200	22179
26,12267	22111
26,13333	22058
26,14400	22007
26,15467	21958
26,16533	21928
26,17600	21906
26,18667	21898
26,19733	21888
26,20800	21889
26,21867	21889
26,22933	21882
26,24000	21869
26,25067	21855
26,26133	21845
26,27200	21826
26,28267	21804
26,29333	21770
26,30400	21736
26,31467	21702
26,32533	21676
26,33600	21626
26,34667	21581
26,35733	21538
26,36800	21496
26,37867	21437
26,38933	21390
26,40000	21345
26,41067	21300
26,42133	21244
26,43200	21202
26,44267	21165
26,45333	21125
26,46400	21094
26,47467	21070
26,48533	21063
26,49600	21059
26,50667	21057
26,51733	21060
26,52800	21066
26,53867	21073
26,54933	21078
26,56000	21098
26,57067	21109
26,58133	21111
26,59200	21112
26,60267	21110
26,61333	21109
26,62400	21117
26,63467	21119
26,64533	21121
26,65600	21120
26,66667	21129
26,67733	21134
26,68800	21141
26,69867	21152
26,70933	21163
26,72000	21180
26,73067	21194
26,74133	21208
26,75200	21230
26,76267	21254
26,77333	21283
26,78400	21320
26,79467	21365
26,80533	21411
26,81600	21485
26,82667	21575
26,83733	21693
26,84800	21845
26,85867	22029
26,86933	22243
26,88000	22498
26,89067	22778
26,90133	23084
26,91200	23383
26,92267	23676
26,93333	23954
26,94400	24191
26,95467	24387
26,96533	24533
26,97600	24642
26,98667	24702
26,99733	24718
27,00800	24688
27,01867	24628
27,02933	24543
27,04000	24427
27,05067	24298
27,06133	24156
27,07200	23987
27,08267	23810
27,09333	23626
27,10400	23427
27,11467	23211
27,12533	22991
27,13600	22760
27,14667	22534
27,15733	22309
27,16800	22093
27,17867	21877
27,18933	21677
27,20000	21492
27,21067	21312
27,22133	21142
27,23200	20982
27,24267	20858
27,25333	20740
27,26400	20637
27,27467	20566
27,28533	20504
27,29600	20476
27,30667	20472
27,31733	20507
27,32800	20568
27,33867	20662
27,34933	20812
27,36000	20976
27,37067	21165
27,38133	21379
27,39200	21606
27,40267	21820
27,41333	22011
27,42400	22162
27,43467	22258
27,44533	22297
27,45600	22283
27,46667	22203
27,47733	22079
27,48800	21910
27,49867	21737
27,50933	21549
27,52000	21371
27,53067	21202
27,54133	21060
27,55200	20940
27,56267	20841
27,57333	20773
27,58400	20735
27,59467	20711
27,60533	20718
27,61600	20739
27,62667	20778
27,63733	20814
27,64800	20873
27,65867	20926
27,66933	20972
27,68000	21021
27,69067	21056
27,70133	21071
27,71200	21067
27,72267	21038
27,73333	20998
27,74400	20920
27,75467	20823
27,76533	20706
27,77600	20576
27,78667	20444
27,79733	20309
27,80800	20188
27,81867	20070
27,82933	19959
27,84000	19867
27,85067	19778
27,86133	19704
27,87200	19645
27,88267	19600
27,89333	19559
27,90400	19534
27,91467	19513
27,92533	19506
27,93600	19491
27,94667	19488
27,95733	19492
27,96800	19491
27,97867	19483
27,98933	19482
28,00000	19476
28,01067	19471
28,02133	19452
28,03200	19433
28,04267	19413
28,05333	19394
28,06400	19371
28,07467	19349
28,08533	19327
28,09600	19297
28,10667	19278
28,11733	19252
28,12800	19230
28,13867	19210
28,14933	19193
28,16000	19182
28,17067	19183
28,18133	19170
28,19200	19170
28,20267	19177
28,21333	19177
28,22400	19183
28,23467	19204
28,24533	19218
28,25600	19247
28,26667	19278
28,27733	19318
28,28800	19339
28,29867	19372
28,30933	19387
28,32000	19394
28,33067	19410
28,34133	19416
28,35200	19402
28,36267	19378
28,37333	19347
28,38400	19308
28,39467	19270
28,40533	19233
28,41600	19200
28,42667	19158
28,43733	19132
28,44800	19108
28,45867	19077
28,46933	19064
28,48000	19041
28,49067	19025
28,50133	19005
28,51200	18983
28,52267	18970
28,53333	18969
28,54400	18967
28,55467	18973
28,56533	18994
28,57600	19003
28,58667	19028
28,59733	19058
28,60800	19094
28,61867	19116
28,62933	19135
28,64000	19159
28,65067	19169
28,66133	19175
28,67200	19172
28,68267	19155
28,69333	19150
28,70400	19129
28,71467	19118
28,72533	19113
28,73600	19103
28,74667	19107
28,75733	19106
28,76800	19102
28,77867	19098
28,78933	19101
28,80000	19088
28,81067	19068
28,82133	19056
28,83200	19034
28,84267	19009
28,85333	18973
28,86400	18935
28,87467	18902
28,88533	18868
28,89600	18853
28,90667	18821
28,91733	18799
28,92800	18777
28,93867	18759
28,94933	18738
28,96000	18714
28,97067	18690
28,98133	18660
28,99200	18636
29,00267	18607
29,01333	18582
29,02400	18556
29,03467	18527
29,04533	18498
29,05600	18479
29,06667	18448
29,07733	18417
29,08800	18390
29,09867	18358
29,10933	18326
29,12000	18291
29,13067	18262
29,14133	18225
29,15200	18202
29,16267	18166
29,17333	18128
29,18400	18095
29,19467	18064
29,20533	18022
29,21600	17991
29,22667	17956
29,23733	17931
29,24800	17908
29,25867	17884
29,26933	17867
29,28000	17857
29,29067	17837
29,30133	17821
29,31200	17821
29,32267	17829
29,33333	17823
29,34400	17832
29,35467	17843
29,36533	17860
29,37600	17885
29,38667	17905
29,39733	17927
29,40800	17964
29,41867	18001
29,42933	18042
29,44000	18078
29,45067	18119
29,46133	18156
29,47200	18179
29,48267	18202
29,49333	18229
29,50400	18239
29,51467	18260
29,52533	18261
29,53600	18258
29,54667	18250
29,55733	18244
29,56800	18244
29,57867	18247
29,58933	18250
29,60000	18265
29,61067	18273
29,62133	18280
29,63200	18288
29,64267	18299
29,65333	18298
29,66400	18296
29,67467	18281
29,68533	18260
29,69600	18239
29,70667	18219
29,71733	18206
29,72800	18190
29,73867	18165
29,74933	18166
29,76000	18156
29,77067	18131
29,78133	18124
29,79200	18104
29,80267	18093
29,81333	18087
29,82400	18078
29,83467	18049
29,84533	18023
29,85600	18001
29,86667	17976
29,87733	17942
29,88800	17919
29,89867	17891
29,90933	17876
29,92000	17860
29,93067	17847
29,94133	17839
29,95200	17842
29,96267	17833
29,97333	17823
29,98400	17818
29,99467	17813
30,00533	17798
30,01600	17800
30,02667	17788
30,03733	17774
30,04800	17762
30,05867	17757
30,06933	17751
30,08000	17748
30,09067	17751
30,10133	17757
30,11200	17770
30,12267	17771
30,13333	17778
30,14400	17769
30,15467	17771
30,16533	17761
30,17600	17749
30,18667	17723
30,19733	17692
30,20800	17662
30,21867	17619
30,22933	17587
30,24000	17553
30,25067	17517
30,26133	17474
30,27200	17446
30,28267	17419
30,29333	17401
30,30400	17374
30,31467	17350
30,32533	17338
30,33600	17314
30,34667	17305
30,35733	17296
30,36800	17278
30,37867	17264
30,38933	17253
30,40000	17240
30,41067	17231
30,42133	17230
30,43200	17210
30,44267	17206
30,45333	17182
30,46400	17168
30,47467	17159
30,48533	17153
30,49600	17149
30,50667	17147
30,51733	17133
30,52800	17134
30,53867	17134
30,54933	17139
30,56000	17149
30,57067	17165
30,58133	17163
30,59200	17168
30,60267	17176
30,61333	17188
30,62400	17193
30,63467	17201
30,64533	17203
30,65600	17201
30,66667	17201
30,67733	17192
30,68800	17187
30,69867	17183
30,70933	17176
30,72000	17171
30,73067	17167
30,74133	17150
30,75200	17147
30,76267	17145
30,77333	17143
30,78400	17142
30,79467	17153
30,80533	17180
30,81600	17214
30,82667	17241
30,83733	17273
30,84800	17310
30,85867	17350
30,86933	17378
30,88000	17415
30,89067	17446
30,90133	17461
30,91200	17470
30,92267	17470
30,93333	17450
30,94400	17424
30,95467	17400
30,96533	17361
30,97600	17324
30,98667	17271
30,99733	17221
31,00800	17176
31,01867	17119
31,02933	17072
31,04000	17026
31,05067	16989
31,06133	16958
31,07200	16936
31,08267	16906
31,09333	16892
31,10400	16887
31,11467	16875
31,12533	16884
31,13600	16883
31,14667	16881
31,15733	16889
31,16800	16895
31,17867	16894
31,18933	16911
31,20000	16918
31,21067	16912
31,22133	16911
31,23200	16909
31,24267	16893
31,25333	16889
31,26400	16877
31,27467	16858
31,28533	16855
31,29600	16840
31,30667	16833
31,31733	16835
31,32800	16829
31,33867	16811
31,34933	16809
31,36000	16805
31,37067	16795
31,38133	16785
31,39200	16775
31,40267	16765
31,41333	16757
31,42400	16748
31,43467	16731
31,44533	16719
31,45600	16711
31,46667	16697
31,47733	16681
31,48800	16665
31,49867	16648
31,50933	16637
31,52000	16640
31,53067	16626
31,54133	16630
31,55200	16627
31,56267	16618
31,57333	16626
31,58400	16627
31,59467	16628
31,60533	16627
31,61600	16634
31,62667	16641
31,63733	16640
31,64800	16653
31,65867	16663
31,66933	16659
31,68000	16665
31,69067	16678
31,70133	16687
31,71200	16692
31,72267	16697
31,73333	16697
31,74400	16697
31,75467	16693
31,76533	16680
31,77600	16662
31,78667	16648
31,79733	16627
31,80800	16610
31,81867	16587
31,82933	16567
31,84000	16548
31,85067	16529
31,86133	16513
31,87200	16489
31,88267	16474
31,89333	16458
31,90400	16451
31,91467	16433
31,92533	16418
31,93600	16406
31,94667	16396
31,95733	16391
31,96800	16394
31,97867	16382
31,98933	16378
32,00000	16375
32,01067	16371
32,02133	16374
32,03200	16369
32,04267	16366
32,05333	16357
32,06400	16364
32,07467	16356
32,08533	16354
32,09600	16366
32,10667	16358
32,11733	16348
32,12800	16342
32,13867	16337
32,14933	16335
32,16000	16339
32,17067	16343
32,18133	16342
32,19200	16342
32,20267	16334
32,21333	16327
32,22400	16336
32,23467	16334
32,24533	16343
32,25600	16340
32,26667	16334
32,27733	16338
32,28800	16342
32,29867	16351
32,30933	16362
32,32000	16364
32,33067	16363
32,34133	16372
32,35200	16379
32,36267	16387
32,37333	16400
32,38400	16406
32,39467	16423
32,40533	16439
32,41600	16454
32,42667	16472
32,43733	16496
32,44800	16524
32,45867	16551
32,46933	16587
32,48000	16630
32,49067	16682
32,50133	16754
32,51200	16833
32,52267	16920
32,53333	17030
32,54400	17154
32,55467	17292
32,56533	17441
32,57600	17605
32,58667	17774
32,59733	17942
32,60800	18095
32,61867	18221
32,62933	18336
32,64000	18405
32,65067	18450
32,66133	18464
32,67200	18448
32,68267	18409
32,69333	18346
32,70400	18274
32,71467	18199
32,72533	18129
32,73600	18076
32,74667	18026
32,75733	17999
32,76800	17976
32,77867	17982
32,78933	18007
32,80000	18043
32,81067	18085
32,82133	18148
32,83200	18225
32,84267	18305
32,85333	18401
32,86400	18508
32,87467	18632
32,88533	18752
32,89600	18894
32,90667	19039
32,91733	19187
32,92800	19355
32,93867	19513
32,94933	19683
32,96000	19850
32,97067	20014
32,98133	20177
32,99200	20337
33,00267	20504
33,01333	20658
33,02400	20818
33,03467	20974
33,04533	21132
33,05600	21306
33,06667	21467
33,07733	21636
33,08800	21808
33,09867	21978
33,10933	22155
33,12000	22334
33,13067	22518
33,14133	22695
33,15200	22895
33,16267	23088
33,17333	23281
33,18400	23481
33,19467	23680
33,20533	23886
33,21600	24092
33,22667	24303
33,23733	24504
33,24800	24713
33,25867	24898
33,26933	25101
33,28000	25294
33,29067	25482
33,30133	25668
33,31200	25856
33,32267	26040
33,33333	26222
33,34400	26398
33,35467	26571
33,36533	26754
33,37600	26937
33,38667	27113
33,39733	27286
33,40800	27472
33,41867	27645
33,42933	27822
33,44000	27992
33,45067	28165
33,46133	28337
33,47200	28497
33,48267	28660
33,49333	28818
33,50400	28968
33,51467	29112
33,52533	29251
33,53600	29400
33,54667	29547
33,55733	29686
33,56800	29816
33,57867	29952
33,58933	30075
33,60000	30195
33,61067	30315
33,62133	30432
33,63200	30544
33,64267	30661
33,65333	30763
33,66400	30864
33,67467	30964
33,68533	31053
33,69600	31139
33,70667	31220
33,71733	31293
33,72800	31355
33,73867	31421
33,74933	31487
33,76000	31549
33,77067	31616
33,78133	31681
33,79200	31734
33,80267	31776
33,81333	31823
33,82400	31872
33,83467	31918
33,84533	31951
33,85600	31997
33,86667	32034
33,87733	32084
33,88800	32123
33,89867	32172
33,90933	32230
33,92000	32329
33,93067	32463
33,94133	32622
33,95200	32751
33,96267	32839
33,97333	32851
33,98400	32806
33,99467	32744
34,00533	32700
34,01600	32684
34,02667	32694
34,03733	32751
34,04800	32844
34,05867	32959
34,06933	33060
34,08000	33120
34,09067	33112
34,10133	33047
34,11200	32956
34,12267	32863
34,13333	32765
34,14400	32712
34,15467	32684
34,16533	32675
34,17600	32697
34,18667	32751
34,19733	32843
34,20800	32950
34,21867	33079
34,22933	33209
34,24000	33360
34,25067	33479
34,26133	33592
34,27200	33680
34,28267	33746
34,29333	33776
34,30400	33769
34,31467	33751
34,32533	33733
34,33600	33726
34,34667	33741
34,35733	33789
34,36800	33859
34,37867	33941
34,38933	34028
34,40000	34132
34,41067	34270
34,42133	34455
34,43200	34664
34,44267	34875
34,45333	35050
34,46400	35203
34,47467	35327
34,48533	35390
34,49600	35410
34,50667	35367
34,51733	35287
34,52800	35167
34,53867	35020
34,54933	34845
34,56000	34717
34,57067	34605
34,58133	34527
34,59200	34473
34,60267	34448
34,61333	34466
34,62400	34495
34,63467	34537
34,64533	34577
34,65600	34602
34,66667	34607
34,67733	34605
34,68800	34589
34,69867	34580
34,70933	34572
34,72000	34584
34,73067	34609
34,74133	34639
34,75200	34693
34,76267	34759
34,77333	34835
34,78400	34906
34,79467	35004
34,80533	35101
34,81600	35180
34,82667	35257
34,83733	35348
34,84800	35455
34,85867	35581
34,86933	35673
34,88000	35731
34,89067	35773
34,90133	35793
34,91200	35839
34,92267	35878
34,93333	35943
34,94400	36010
34,95467	36103
34,96533	36295
34,97600	36769
34,98667	38132
34,99733	41720
35,00800	49317
35,01867	62360
35,02933	81174
35,04000	104827
35,05067	129299
35,06133	147266
35,07200	151954
35,08267	143122
35,09333	126602
35,10400	108742
35,11467	93398
35,12533	81535
35,13600	72872
35,14667	66676
35,15733	62420
35,16800	59573
35,17867	57651
35,18933	56141
35,20000	54744
35,21067	53395
35,22133	52135
35,23200	51053
35,24267	50172
35,25333	49445
35,26400	48837
35,27467	48321
35,28533	47870
35,29600	47470
35,30667	47111
35,31733	46788
35,32800	46509
35,33867	46290
35,34933	46141
35,36000	46005
35,37067	45759
35,38133	45306
35,39200	44757
35,40267	44263
35,41333	43988
35,42400	44048
35,43467	44724
35,44533	46324
35,45600	48760
35,46667	51356
35,47733	53173
35,48800	53757
35,49867	53328
35,50933	52305
35,52000	50980
35,53067	49495
35,54133	48073
35,55200	47097
35,56267	46887
35,57333	47414
35,58400	48167
35,59467	48502
35,60533	48146
35,61600	47254
35,62667	46252
35,63733	45346
35,64800	44602
35,65867	44020
35,66933	43579
35,68000	43254
35,69067	43023
35,70133	42853
35,71200	42740
35,72267	42683
35,73333	42664
35,74400	42668
35,75467	42686
35,76533	42736
35,77600	42844
35,78667	43038
35,79733	43361
35,80800	43862
35,81867	44469
35,82933	45054
35,84000	45428
35,85067	45527
35,86133	45434
35,87200	45276
35,88267	45091
35,89333	44845
35,90400	44506
35,91467	44114
35,92533	43723
35,93600	43377
35,94667	43105
35,95733	42900
35,96800	42769
35,97867	42681
35,98933	42669
36,00000	42729
36,01067	42833
36,02133	42928
36,03200	42995
36,04267	42998
36,05333	42949
36,06400	42860
36,07467	42757
36,08533	42689
36,09600	42666
36,10667	42690
36,11733	42734
36,12800	42802
36,13867	42901
36,14933	43025
36,16000	43180
36,17067	43366
36,18133	43535
36,19200	43687
36,20267	43833
36,21333	43967
36,22400	44089
36,23467	44211
36,24533	44293
36,25600	44289
36,26667	44212
36,27733	44146
36,28800	44167
36,29867	44381
36,30933	44789
36,32000	45236
36,33067	45525
36,34133	45529
36,35200	45272
36,36267	44894
36,37333	44511
36,38400	44216
36,39467	43982
36,40533	43791
36,41600	43626
36,42667	43483
36,43733	43371
36,44800	43291
36,45867	43230
36,46933	43194
36,48000	43188
36,49067	43191
36,50133	43206
36,51200	43229
36,52267	43249
36,53333	43263
36,54400	43279
36,55467	43283
36,56533	43296
36,57600	43313
36,58667	43319
36,59733	43311
36,60800	43315
36,61867	43324
36,62933	43331
36,64000	43338
36,65067	43359
36,66133	43402
36,67200	43453
36,68267	43502
36,69333	43559
36,70400	43601
36,71467	43630
36,72533	43651
36,73600	43684
36,74667	43732
36,75733	43817
36,76800	43917
36,77867	43978
36,78933	44004
36,80000	43958
36,81067	43874
36,82133	43752
36,83200	43647
36,84267	43560
36,85333	43496
36,86400	43458
36,87467	43429
36,88533	43417
36,89600	43412
36,90667	43413
36,91733	43420
36,92800	43412
36,93867	43413
36,94933	43428
36,96000	43458
36,97067	43517
36,98133	43620
36,99200	43783
37,00267	44013
37,01333	44254
37,02400	44496
37,03467	44672
37,04533	44749
37,05600	44691
37,06667	44543
37,07733	44327
37,08800	44097
37,09867	43894
37,10933	43739
37,12000	43621
37,13067	43550
37,14133	43494
37,15200	43475
37,16267	43483
37,17333	43514
37,18400	43586
37,19467	43672
37,20533	43763
37,21600	43854
37,22667	43914
37,23733	43922
37,24800	43877
37,25867	43809
37,26933	43719
37,28000	43639
37,29067	43578
37,30133	43532
37,31200	43501
37,32267	43489
37,33333	43474
37,34400	43460
37,35467	43456
37,36533	43445
37,37600	43450
37,38667	43458
37,39733	43462
37,40800	43459
37,41867	43474
37,42933	43471
37,44000	43472
37,45067	43486
37,46133	43486
37,47200	43494
37,48267	43497
37,49333	43517
37,50400	43526
37,51467	43537
37,52533	43549
37,53600	43553
37,54667	43546
37,55733	43547
37,56800	43540
37,57867	43533
37,58933	43536
37,60000	43529
37,61067	43529
37,62133	43534
37,63200	43544
37,64267	43544
37,65333	43544
37,66400	43551
37,67467	43550
37,68533	43558
37,69600	43560
37,70667	43571
37,71733	43578
37,72800	43600
37,73867	43619
37,74933	43647
37,76000	43677
37,77067	43705
37,78133	43732
37,79200	43745
37,80267	43760
37,81333	43747
37,82400	43735
37,83467	43714
37,84533	43708
37,85600	43693
37,86667	43683
37,87733	43668
37,88800	43675
37,89867	43668
37,90933	43669
37,92000	43669
37,93067	43671
37,94133	43670
37,95200	43658
37,96267	43669
37,97333	43658
37,98400	43658
37,99467	43658
38,00533	43649
38,01600	43653
38,02667	43654
38,03733	43652
38,04800	43648
38,05867	43653
38,06933	43651
38,08000	43655
38,09067	43649
38,10133	43653
38,11200	43657
38,12267	43657
38,13333	43659
38,14400	43658
38,15467	43656
38,16533	43668
38,17600	43673
38,18667	43671
38,19733	43680
38,20800	43686
38,21867	43703
38,22933	43708
38,24000	43721
38,25067	43738
38,26133	43745
38,27200	43739
38,28267	43752
38,29333	43757
38,30400	43754
38,31467	43750
38,32533	43747
38,33600	43732
38,34667	43725
38,35733	43726
38,36800	43716
38,37867	43719
38,38933	43720
38,40000	43722
38,41067	43727
38,42133	43727
38,43200	43727
38,44267	43734
38,45333	43736
38,46400	43739
38,47467	43741
38,48533	43737
38,49600	43744
38,50667	43751
38,51733	43751
38,52800	43754
38,53867	43759
38,54933	43770
38,56000	43769
38,57067	43765
38,58133	43775
38,59200	43783
38,60267	43786
38,61333	43795
38,62400	43791
38,63467	43801
38,64533	43806
38,65600	43821
38,66667	43839
38,67733	43853
38,68800	43866
38,69867	43881
38,70933	43893
38,72000	43910
38,73067	43927
38,74133	43961
38,75200	44017
38,76267	44111
38,77333	44271
38,78400	44535
38,79467	44975
38,80533	45669
38,81600	46716
38,82667	48244
38,83733	50356
38,84800	53118
38,85867	56500
38,86933	60379
38,88000	64426
38,89067	68222
38,90133	71317
38,91200	73254
38,92267	73749
38,93333	72757
38,94400	70424
38,95467	67135
38,96533	63350
38,97600	59516
38,98667	55995
38,99733	52999
39,00800	50617
39,01867	48817
39,02933	47509
39,04000	46592
39,05067	45950
39,06133	45513
39,07200	45192
39,08267	44965
39,09333	44781
39,10400	44630
39,11467	44492
39,12533	44364
39,13600	44245
39,14667	44127
39,15733	44001
39,16800	43879
39,17867	43752
39,18933	43617
39,20000	43469
39,21067	43334
39,22133	43176
39,23200	43025
39,24267	42864
39,25333	42684
39,26400	42508
39,27467	42319
39,28533	42116
39,29600	41908
39,30667	41699
39,31733	41479
39,32800	41255
39,33867	41028
39,34933	40795
39,36000	40567
39,37067	40334
39,38133	40086
39,39200	39860
39,40267	39636
39,41333	39416
39,42400	39186
39,43467	38976
39,44533	38780
39,45600	38588
39,46667	38372
39,47733	38173
39,48800	37986
39,49867	37787
39,50933	37539
39,52000	37281
39,53067	37008
39,54133	36706
39,55200	36360
39,56267	36000
39,57333	35650
39,58400	35310
39,59467	34964
39,60533	34598
39,61600	34169
39,62667	33648
39,63733	33020
39,64800	32282
39,65867	31429
39,66933	30465
39,68000	29405
39,69067	28289
39,70133	27136
39,71200	25947
39,72267	24753
39,73333	23532
39,74400	22317
39,75467	21085
39,76533	19862
39,77600	18658
39,78667	17522
39,79733	16428
39,80800	15394
39,81867	14431
39,82933	13519
39,84000	12675
39,85067	11875
39,86133	11129
39,87200	10442
39,88267	9805
39,89333	9233
39,90400	8699
39,91467	8206
39,92533	7748
39,93600	7331
39,94667	6945
39,95733	6595
39,96800	6269
39,97867	5960
39,98933	5679
40,00000	5425
40,01067	5176
40,02133	4944
40,03200	4735
40,04267	4541
40,05333	4357
40,06400	4182
40,07467	4022
40,08533	3873
40,09600	3722
40,10667	3585
40,11733	3459
40,12800	3333
40,13867	3230
40,14933	3119
40,16000	3014
40,17067	2898
40,18133	2805
40,19200	2716
40,20267	2626
40,21333	2537
40,22400	2458
40,23467	2378
40,24533	2295
40,25600	2222
40,26667	2155
40,27733	2087
40,28800	2018
40,29867	1942
40,30933	1879
40,32000	1825
40,33067	1764
40,34133	1713
40,35200	1657
40,36267	1609
40,37333	1559
40,38400	1508
40,39467	1461
40,40533	1414
40,41600	1370
40,42667	1326
40,43733	1290
40,44800	1251
40,45867	1218
40,46933	1184
40,48000	1143
40,49067	1110
40,50133	1076
40,51200	1049
40,52267	1016
40,53333	990
40,54400	952
40,55467	917
40,56533	894
40,57600	861
40,58667	830
40,59733	804
40,60800	774
40,61867	752
40,62933	717
40,64000	696
40,65067	669
40,66133	643
40,67200	618
40,68267	601
40,69333	568
40,70400	539
40,71467	519
40,72533	502
40,73600	479
40,74667	453
40,75733	423
40,76800	404
40,77867	377
40,78933	362
40,80000	339
40,81067	312
40,82133	294
40,83200	266
40,84267	248
40,85333	230
40,86400	212
40,87467	185
40,88533	177
40,89600	160
40,90667	141
40,91733	123
40,92800	107
40,93867	100
40,94933	81
40,96000	68
40,97067	52
40,98133	38
40,99200	32
41,00267	9
41,01333	-1
41,02400	-11
41,03467	-26
41,04533	-31
41,05600	-37
41,06667	-56
41,07733	-65
41,08800	-81
41,09867	-82
41,10933	-87
41,12000	-94
41,13067	-97
41,14133	-107
41,15200	-119
41,16267	-124
41,17333	-127
41,18400	-144
41,19467	-153
41,20533	-145
41,21600	-157
41,22667	-162
41,23733	-177
41,24800	-175
41,25867	-176
41,26933	-196
41,28000	-203
41,29067	-207
41,30133	-217
41,31200	-212
41,32267	-215
41,33333	-218
41,34400	-228
41,35467	-222
41,36533	-223
41,37600	-237
41,38667	-240
41,39733	-241
41,40800	-241
41,41867	-243
41,42933	-239
41,44000	-228
41,45067	-231
41,46133	-240
41,47200	-233
41,48267	-228
41,49333	-236
41,50400	-232
41,51467	-225
41,52533	-218
41,53600	-216
41,54667	-212
41,55733	-206
41,56800	-206
41,57867	-195
41,58933	-188
41,60000	-183
41,61067	-177
41,62133	-175
41,63200	-161
41,64267	-160
41,65333	-148
41,66400	-139
41,67467	-134
41,68533	-124
41,69600	-114
41,70667	-109
41,71733	-104
41,72800	-97
41,73867	-98
41,74933	-91
41,76000	-76
41,77067	-68
41,78133	-60
41,79200	-48
41,80267	-40
41,81333	-44
41,82400	-32
41,83467	-20
41,84533	-18
41,85600	-15
41,86667	-3
41,87733	1
41,88800	-8
41,89867	10
41,90933	22
41,92000	14
41,93067	29
41,94133	33
41,95200	39
41,96267	47
41,97333	50
41,98400	54
41,99467	54
42,00533	54
42,01600	64
42,02667	66
42,03733	79
42,04800	95
42,05867	97
42,06933	90
42,08000	96
42,09067	104
42,10133	107
42,11200	109
42,12267	117
42,13333	113
42,14400	115
42,15467	116
42,16533	126
42,17600	132
42,18667	133
42,19733	136
42,20800	130
42,21867	136
42,22933	131
42,24000	138
42,25067	144
42,26133	147
42,27200	150
42,28267	154
42,29333	152
42,30400	155
42,31467	153
42,32533	151
42,33600	149
42,34667	164
42,35733	161
42,36800	161
42,37867	167
42,38933	169
42,40000	171
42,41067	167
42,42133	167
42,43200	167
42,44267	168
42,45333	164
42,46400	162
42,47467	166
42,48533	170
42,49600	164
42,50667	164
42,51733	163
42,52800	165
42,53867	165
42,54933	161
42,56000	159
42,57067	157
42,58133	150
42,59200	166
42,60267	166
42,61333	168
42,62400	166
42,63467	170
42,64533	172
42,65600	162
42,66667	170
42,67733	167
42,68800	168
42,69867	165
42,70933	165
42,72000	171
42,73067	164
42,74133	161
42,75200	157
42,76267	157
42,77333	160
42,78400	155
42,79467	159
42,80533	166
42,81600	163
42,82667	165
42,83733	167
42,84800	158
42,85867	162
42,86933	155
42,88000	161
42,89067	163
42,90133	164
42,91200	166
42,92267	162
42,93333	159
42,94400	150
42,95467	148
42,96533	147
42,97600	152
42,98667	150
42,99733	156
43,00800	152
43,01867	149
43,02933	145
43,04000	146
43,05067	151
43,06133	158
43,07200	160
43,08267	155
43,09333	155
43,10400	149
43,11467	154
43,12533	157
43,13600	162
43,14667	164
43,15733	157
43,16800	154
43,17867	155
43,18933	150
43,20000	158
43,21067	159
43,22133	158
43,23200	162
43,24267	153
43,25333	154
43,26400	152
43,27467	155
43,28533	154
43,29600	164
43,30667	158
43,31733	153
43,32800	154
43,33867	150
43,34933	157
43,36000	153
43,37067	147
43,38133	137
43,39200	147
43,40267	150
43,41333	151
43,42400	156
43,43467	149
43,44533	151
43,45600	152
43,46667	153
43,47733	154
43,48800	153
43,49867	155
43,50933	153
43,52000	156
43,53067	152
43,54133	152
43,55200	152
43,56267	149
43,57333	151
43,58400	147
43,59467	147
43,60533	157
43,61600	151
43,62667	154
43,63733	153
43,64800	154
43,65867	153
43,66933	145
43,68000	147
43,69067	148
43,70133	145
43,71200	144
43,72267	136
43,73333	138
43,74400	135
43,75467	139
43,76533	146
43,77600	148
43,78667	146
43,79733	141
43,80800	144
43,81867	135
43,82933	146
43,84000	139
43,85067	145
43,86133	135
43,87200	136
43,88267	138
43,89333	134
43,90400	135
43,91467	137
43,92533	136
43,93600	130
43,94667	124
43,95733	127
43,96800	132
43,97867	133
43,98933	127
44,00000	122
44,01067	120
44,02133	114
44,03200	126
44,04267	125
44,05333	125
44,06400	130
44,07467	128
44,08533	123
44,09600	126
44,10667	122
44,11733	117
44,12800	121
44,13867	106
44,14933	114
44,16000	111
44,17067	114
44,18133	110
44,19200	110
44,20267	118
44,21333	116
44,22400	114
44,23467	119
44,24533	104
44,25600	111
44,26667	108
44,27733	110
44,28800	111
44,29867	109
44,30933	105
44,32000	110
44,33067	111
44,34133	111
44,35200	110
44,36267	109
44,37333	104
44,38400	101
44,39467	112
44,40533	108
44,41600	103
44,42667	105
44,43733	104
44,44800	107
44,45867	99
44,46933	102
44,48000	100
44,49067	100
44,50133	102
44,51200	99
44,52267	103
44,53333	106
44,54400	106
44,55467	104
44,56533	105
44,57600	108
44,58667	109
44,59733	105
44,60800	106
44,61867	106
44,62933	107
44,64000	108
44,65067	107
44,66133	112
44,67200	103
44,68267	105
44,69333	109
44,70400	107
44,71467	107
44,72533	103
44,73600	103
44,74667	117
44,75733	109
44,76800	105
44,77867	94
44,78933	99
44,80000	100
44,81067	106
44,82133	103
44,83200	104
44,84267	101
44,85333	96
44,86400	99
44,87467	104
44,88533	102
44,89600	96
44,90667	97
44,91733	90
44,92800	92
44,93867	96
44,94933	96
44,96000	94
44,97067	93
44,98133	93
44,99200	98
45,00267	97
45,01333	94
45,02400	102
45,03467	98
45,04533	101
45,05600	92
45,06667	95
45,07733	98
45,08800	96
45,09867	93
45,10933	95
45,12000	86
45,13067	84
45,14133	89
45,15200	94
45,16267	98
45,17333	92
45,18400	97
45,19467	94
45,20533	88
45,21600	89
45,22667	89
45,23733	90
45,24800	98
45,25867	88
45,26933	89
45,28000	92
45,29067	92
45,30133	97
45,31200	98
45,32267	99
45,33333	89
45,34400	93
45,35467	86
45,36533	94
45,37600	92
45,38667	83
45,39733	89
45,40800	86
45,41867	95
45,42933	90
45,44000	90
45,45067	96
45,46133	92
45,47200	91
45,48267	89
45,49333	83
45,50400	86
45,51467	85
45,52533	89
45,53600	84
45,54667	84
45,55733	80
45,56800	82
45,57867	84
45,58933	88
45,60000	86
45,61067	88
45,62133	79
45,63200	79
45,64267	82
45,65333	80
45,66400	81
45,67467	84
45,68533	82
45,69600	81
45,70667	91
45,71733	88
45,72800	92
45,73867	98
45,74933	87
45,76000	90
45,77067	89
45,78133	78
45,79200	78
45,80267	80
45,81333	78
45,82400	83
45,83467	84
45,84533	77
45,85600	78
45,86667	83
45,87733	87
45,88800	79
45,89867	79
45,90933	75
45,92000	79
45,93067	84
45,94133	83
45,95200	78
45,96267	83
45,97333	82
45,98400	81
45,99467	83
46,00533	79
46,01600	74
46,02667	86
46,03733	81
46,04800	85
46,05867	82
46,06933	79
46,08000	75
46,09067	75
46,10133	84
46,11200	81
46,12267	85
46,13333	84
46,14400	79
46,15467	84
46,16533	78
46,17600	79
46,18667	75
46,19733	79
46,20800	75
46,21867	75
46,22933	71
46,24000	68
46,25067	74
46,26133	82
46,27200	73
46,28267	74
46,29333	67
46,30400	69
46,31467	74
46,32533	75
46,33600	83
46,34667	79
46,35733	72
46,36800	70
46,37867	73
46,38933	72
46,40000	76
46,41067	79
46,42133	78
46,43200	77
46,44267	73
46,45333	78
46,46400	69
46,47467	76
46,48533	76
46,49600	73
46,50667	66
46,51733	69
46,52800	72
46,53867	74
46,54933	72
46,56000	70
46,57067	75
46,58133	74
46,59200	78
46,60267	75
46,61333	75
46,62400	70
46,63467	73
46,64533	69
46,65600	72
46,66667	75
46,67733	73
46,68800	72
46,69867	69
46,70933	70
46,72000	72
46,73067	76
46,74133	66
46,75200	62
46,76267	58
46,77333	66
46,78400	75
46,79467	69
46,80533	73
46,81600	67
46,82667	69
46,83733	71
46,84800	68
46,85867	72
46,86933	67
46,88000	74
46,89067	75
46,90133	70
46,91200	76
46,92267	70
46,93333	75
46,94400	70
46,95467	72
46,96533	69
46,97600	65
46,98667	65
46,99733	63
47,00800	66
47,01867	66
47,02933	72
47,04000	73
47,05067	73
47,06133	78
47,07200	75
47,08267	65
47,09333	64
47,10400	70
47,11467	69
47,12533	62
47,13600	67
47,14667	67
47,15733	71
47,16800	74
47,17867	68
47,18933	66
47,20000	62
47,21067	69
47,22133	61
47,23200	67
47,24267	65
47,25333	66
47,26400	66
47,27467	64
47,28533	64
47,29600	62
47,30667	60
47,31733	66
47,32800	67
47,33867	68
47,34933	59
47,36000	62
47,37067	65
47,38133	65
47,39200	61
47,40267	57
47,41333	60
47,42400	58
47,43467	58
47,44533	50
47,45600	50
47,46667	60
47,47733	62
47,48800	55
47,49867	56
47,50933	53
47,52000	54
47,53067	64
47,54133	70
47,55200	61
47,56267	60
47,57333	55
47,58400	62
47,59467	64
47,60533	62
47,61600	53
47,62667	52
47,63733	51
47,64800	56
47,65867	59
47,66933	63
47,68000	71
47,69067	63
47,70133	63
47,71200	67
47,72267	61
47,73333	60
47,74400	56
47,75467	57
47,76533	57
47,77600	57
47,78667	55
47,79733	58
47,80800	48
47,81867	50
47,82933	59
47,84000	58
47,85067	54
47,86133	55
47,87200	65
47,88267	63
47,89333	64
47,90400	61
47,91467	63
47,92533	63
47,93600	65
47,94667	62
47,95733	59
47,96800	51
47,97867	50
47,98933	56
48,00000	53
48,01067	51
48,02133	53
48,03200	55
48,04267	47
48,05333	51
48,06400	56
48,07467	59
48,08533	55
48,09600	48
48,10667	50
48,11733	48
48,12800	61
48,13867	57
48,14933	63
48,16000	62
48,17067	62
48,18133	56
48,19200	55
48,20267	50
48,21333	50
48,22400	46
48,23467	57
48,24533	52
48,25600	49
48,26667	50
48,27733	53
48,28800	49
48,29867	48
48,30933	49
48,32000	50
48,33067	54
48,34133	56
48,35200	57
48,36267	51
48,37333	52
48,38400	50
48,39467	52
48,40533	53
48,41600	59
48,42667	53
48,43733	50
48,44800	50
48,45867	44
48,46933	45
48,48000	47
48,49067	45
48,50133	41
48,51200	48
48,52267	49
48,53333	42
48,54400	42
48,55467	44
48,56533	48
48,57600	40
48,58667	45
48,59733	39
48,60800	38
48,61867	43
48,62933	43
48,64000	45
48,65067	44
48,66133	39
48,67200	48
48,68267	51
48,69333	43
48,70400	47
48,71467	44
48,72533	44
48,73600	44
48,74667	41
48,75733	34
48,76800	38
48,77867	41
48,78933	45
48,80000	43
48,81067	45
48,82133	39
48,83200	40
48,84267	40
48,85333	46
48,86400	46
48,87467	42
48,88533	47
48,89600	38
48,90667	42
48,91733	41
48,92800	40
48,93867	51
48,94933	48
48,96000	43
48,97067	44
48,98133	33
48,99200	32
49,00267	39
49,01333	38
49,02400	41
49,03467	39
49,04533	35
49,05600	28
49,06667	34
49,07733	38
49,08800	42
49,09867	43
49,10933	42
49,12000	47
49,13067	35
49,14133	35
49,15200	25
49,16267	21
49,17333	28
49,18400	33
49,19467	41
49,20533	40
49,21600	40
49,22667	34
49,23733	44
49,24800	38
49,25867	35
49,26933	32
49,28000	39
49,29067	44
49,30133	45
49,31200	45
49,32267	38
49,33333	37
49,34400	41
49,35467	36
49,36533	38
49,37600	32
49,38667	38
49,39733	40
49,40800	32
49,41867	35
49,42933	31
49,44000	34
49,45067	30
49,46133	28
49,47200	36
49,48267	37
49,49333	38
49,50400	44
49,51467	36
49,52533	36
49,53600	33
49,54667	39
49,55733	41
49,56800	35
49,57867	35
49,58933	35
49,60000	37
49,61067	37
49,62133	43
49,63200	34
49,64267	32
49,65333	35
49,66400	29
49,67467	32
49,68533	33
49,69600	37
49,70667	35
49,71733	29
49,72800	29
49,73867	27
49,74933	25
49,76000	28
49,77067	24
49,78133	27
49,79200	33
49,80267	34
49,81333	28
49,82400	28
49,83467	30
49,84533	32
49,85600	34
49,86667	36
49,87733	37
49,88800	29
49,89867	29
49,90933	29
49,92000	30
49,93067	24
49,94133	29
49,95200	27
49,96267	29
49,97333	32
49,98400	29
49,99467	32
50,00533	33


