[Header]
Application Name	LabSolutions
Version	5.73
Data File Name	C:\Users\Public\DADOS\Ricardo borges\RMBorges\26.02.25\SCIFFEE 2.lcd
Output Date	27/02/2025
Output Time	03:03:57

[File Information]
Type	Data File
Generated	27/02/2025 02:13:30
Generated by	System Administrator
Modified	27/02/2025 03:03:57
Modified by	System Administrator

[Sample Information]
Operator Name	System Administrator
Acquired	27/02/2025 02:13:54
Sample Type	0:Unknown
Level	0
Sample Name	SCIFFEE 2
Sample ID	SCIFFEE 2
ISTD Amount1	1
ISTD Amount2	1
ISTD Amount3	1
ISTD Amount4	1
ISTD Amount5	1
ISTD Amount6	1
ISTD Amount7	1
ISTD Amount8	1
ISTD Amount9	1
ISTD Amount10	1
ISTD Amount11	1
ISTD Amount12	1
ISTD Amount13	1
ISTD Amount14	1
ISTD Amount15	1
ISTD Amount16	1
ISTD Amount17	1
ISTD Amount18	1
ISTD Amount19	1
ISTD Amount20	1
ISTD Amount21	1
ISTD Amount22	1
ISTD Amount23	1
ISTD Amount24	1
ISTD Amount25	1
ISTD Amount26	1
ISTD Amount27	1
ISTD Amount28	1
ISTD Amount29	1
ISTD Amount30	1
ISTD Amount31	1
ISTD Amount32	1
Sample Amount	1
Dilution Factor	1
Vial#	22
Injection Volume	10

[Original Files]
Data File	C:\Users\Public\DADOS\Ricardo borges\RMBorges\26.02.25\SCIFFEE 2.lcd
Method File	C:\Users\Public\MÉTODOS\MÉTODOS HPLC AUTOMÁTICO\RICARDO BORGES\RMBorges\sciffee\experimental 1 - pool.lcm
Batch File	C:\Users\Public\DADOS\Ricardo borges\RMBorges\26.02.25\BATCH_RM_MIX POOL_26.02.2025.lcb
Report Format File	C:\LabSolutions\System\Default.lsr

[File Description]


[Configuration]
Instrument Name	HPLC analítico (automático)
Instrument #	1
Line #	1
# of Detectors	1
Detector ID	PDA
Detector Name	PDA
# of Channels	1

[Peak Table(PDA-Ch1)]
# of Peaks	84
Peak#	R.Time	I.Time	F.Time	Area	Height	A/H	Conc.	Mark	ID#	Name	k'	Plate #	Plate Ht.	Tailing	Resolution	Sep.Factor	Area Ratio	Height Ratio	Conc. %	Norm Conc.
1	1,673	1,291	1,813	2927107	395636	7,398	0,000	   			0,000	1052	142,648	0,000	0,000	0,000	0	0	0,000	0,000
2	1,866	1,813	2,016	493162	74236	6,643	0,000	 V 			0,115	1269	118,234	0,000	0,927	0,000	0	0	0,000	0,000
3	2,175	2,016	2,443	600815	53294	11,274	0,000	 V 			0,300	744	201,643	0,000	1,171	2,606	0	0	0,000	0,000
4	2,636	2,443	2,805	413556	50548	8,181	0,000	 V 			0,576	2549	58,839	0,000	1,746	1,918	0	0	0,000	0,000
5	2,901	2,805	3,104	109147	8049	13,560	0,000	 V 			0,734	339	442,883	0,000	0,632	1,275	0	0	0,000	0,000
6	3,285	3,104	3,467	114121	7284	15,667	0,000	 V 			0,964	659	227,490	0,000	0,672	1,312	0	0	0,000	0,000
7	3,523	3,467	3,637	36340	4998	7,270	0,000	 V 			1,106	1536	97,676	0,000	0,547	1,148	0	0	0,000	0,000
8	3,800	3,637	4,043	70038	4544	15,414	0,000	 V 			1,272	1275	117,606	0,000	0,706	1,150	0	0	0,000	0,000
9	4,324	4,043	4,736	110022	5138	21,412	0,000	 V 			1,585	1076	139,403	0,000	1,099	1,246	0	0	0,000	0,000
10	4,832	4,736	4,917	6679	638	10,466	0,000	 V 			1,888	0	0,000	0,000	0,000	1,192	0	0	0,000	0,000
11	5,116	4,917	5,344	17922	1167	15,352	0,000	 V 			2,058	2247	66,755	0,000	0,000	1,090	0	0	0,000	0,000
12	5,506	5,344	5,611	2178	243	8,980	0,000	 V 			2,291	8541	17,562	0,000	1,165	1,113	0	0	0,000	0,000
13	5,803	5,621	5,856	4059	481	8,447	0,000	   			2,469	3451	43,460	0,000	0,937	1,077	0	0	0,000	0,000
14	6,052	5,856	6,240	155497	12750	12,196	0,000	 V 			2,618	4961	30,238	0,000	0,675	1,060	0	0	0,000	0,000
15	6,429	6,240	6,709	281783	23532	11,975	0,000	 V 			2,843	6337	23,672	0,000	1,131	1,086	0	0	0,000	0,000
16	6,907	6,709	7,008	12937	820	15,771	0,000	 V 			3,129	1522	98,544	0,000	0,927	1,100	0	0	0,000	0,000
17	7,265	7,008	7,477	63537	3383	18,783	0,000	 V 			3,343	1449	103,534	0,000	0,487	1,068	0	0	0,000	0,000
18	7,648	7,477	7,925	71951	3922	18,346	0,000	 V 			3,572	2224	67,438	0,000	0,542	1,068	0	0	0,000	0,000
19	8,228	7,925	8,757	327840	13187	24,862	0,000	 V 			3,918	3017	49,720	0,000	0,930	1,097	0	0	0,000	0,000
20	9,040	8,757	9,440	287589	17468	16,464	0,000	 V 			4,404	8903	16,847	0,000	1,654	1,124	0	0	0,000	0,000
21	9,697	9,440	9,845	154448	10782	14,324	0,000	 V 			4,796	8069	18,589	0,000	1,612	1,089	0	0	0,000	0,000
22	9,888	9,845	10,197	83873	5909	14,193	0,000	 V 			4,911	15	10020,184	0,000	0,036	1,024	0	0	0,000	0,000
23	10,523	10,197	10,795	655396	50134	13,073	0,000	 V 			5,291	15497	9,679	0,000	0,120	1,077	0	0	0,000	0,000
24	10,851	10,795	10,933	31922	4113	7,761	0,000	 V 			5,486	857	175,075	0,000	0,360	1,037	0	0	0,000	0,000
25	11,188	10,933	13,024	4942388	411282	12,017	0,000	SV 			5,688	22632	6,628	1,171	0,379	1,037	0	0	0,000	0,000
26	11,865	11,744	11,915	1806	239	7,553	0,000	T  			6,092	70926	2,115	0,000	2,846	1,071	0	0	0,000	0,000
27	12,236	11,915	12,395	86601	7608	11,382	0,000	TV 			6,314	24295	6,174	0,000	1,508	1,036	0	0	0,000	0,000
28	12,661	12,395	12,704	60136	3953	15,214	0,000	TV 			6,569	1502	99,869	0,000	0,525	1,040	0	0	0,000	0,000
29	12,831	12,704	13,024	77173	7500	10,290	0,000	TV 			6,670	24251	6,185	0,000	0,208	1,015	0	0	0,000	0,000
30	13,272	13,024	14,912	5148474	274981	18,723	0,000	SV 			6,934	16332	9,185	3,087	1,184	1,040	0	0	0,000	0,000
31	14,307	14,155	14,464	40714	4639	8,777	0,000	T  			7,553	52048	2,882	1,014	3,107	1,089	0	0	0,000	0,000
32	14,622	14,464	14,901	52300	4931	10,607	0,000	T  			7,741	44890	3,341	1,446	1,195	1,025	0	0	0,000	0,000
33	15,187	14,912	16,907	5297112	402753	13,152	0,000	SV 			8,079	42168	3,557	1,425	1,977	1,044	0	0	0,000	0,000
34	15,676	15,573	15,936	48554	5790	8,386	0,000	T  			8,371	70184	2,137	1,613	1,834	1,036	0	0	0,000	0,000
35	16,270	16,000	16,587	54681	3218	16,990	0,000	T  			8,726	17761	8,446	1,092	1,641	1,042	0	0	0,000	0,000
36	16,771	16,597	16,907	51821	5819	8,906	0,000	T  			9,025	70203	2,137	0,934	1,349	1,034	0	0	0,000	0,000
37	17,157	16,907	17,440	1992713	159596	12,486	0,000	 V 			9,256	42842	3,501	1,106	1,322	1,026	0	0	0,000	0,000
38	17,594	17,440	17,685	211293	18690	11,305	0,000	 V 			9,517	20132	7,451	0,000	1,056	1,028	0	0	0,000	0,000
39	17,874	17,685	18,176	982328	78819	12,463	0,000	 V 			9,685	48035	3,123	0,000	0,681	1,018	0	0	0,000	0,000
40	18,254	18,176	18,624	112139	5456	20,552	0,000	 V 			9,912	1550	96,784	0,000	0,348	1,023	0	0	0,000	0,000
41	18,845	18,624	18,987	165258	11662	14,170	0,000	 V 			10,265	26310	5,701	0,000	0,510	1,036	0	0	0,000	0,000
42	19,204	18,987	19,499	382650	25205	15,182	0,000	 V 			10,480	38692	3,877	0,000	0,840	1,021	0	0	0,000	0,000
43	19,691	19,499	19,797	178166	15515	11,483	0,000	 V 			10,771	38476	3,899	0,000	1,229	1,028	0	0	0,000	0,000
44	19,942	19,797	20,192	274778	22547	12,187	0,000	 V 			10,921	50184	2,989	0,000	0,664	1,014	0	0	0,000	0,000
45	20,394	20,192	20,725	264236	25472	10,374	0,000	 V 			11,191	83025	1,807	1,027	1,414	1,025	0	0	0,000	0,000
46	21,088	20,928	21,237	19569	2220	8,815	0,000	   			11,606	112545	1,333	1,056	2,594	1,037	0	0	0,000	0,000
47	21,609	21,237	22,016	1179763	98125	12,023	0,000	 V 			11,918	73536	2,040	0,926	1,830	1,027	0	0	0,000	0,000
48	22,477	22,261	22,592	12978	1440	9,013	0,000	   			12,436	123716	1,212	0,000	3,022	1,044	0	0	0,000	0,000
49	22,787	22,592	23,243	281442	27316	10,303	0,000	 V 			12,622	105539	1,421	1,126	1,155	1,015	0	0	0,000	0,000
50	23,426	23,243	23,627	22309	2051	10,877	0,000	   			13,004	89739	1,672	1,015	2,155	1,030	0	0	0,000	0,000
51	23,774	23,637	23,925	13866	1751	7,920	0,000	   			13,212	172523	0,869	1,056	1,285	1,016	0	0	0,000	0,000
52	24,144	23,925	24,299	84184	6870	12,254	0,000	   			13,433	75070	1,998	0,000	1,273	1,017	0	0	0,000	0,000
53	24,373	24,299	24,555	26773	2998	8,930	0,000	 V 			13,570	37384	4,012	0,000	0,535	1,010	0	0	0,000	0,000
54	24,672	24,555	24,832	10174	1270	8,011	0,000	   			13,748	177639	0,844	1,139	0,809	1,013	0	0	0,000	0,000
55	24,928	24,853	25,045	1375	236	5,818	0,000	   			13,902	302931	0,495	1,253	1,234	1,011	0	0	0,000	0,000
56	25,224	25,067	25,344	4992	495	10,078	0,000	   			14,079	105368	1,424	0,000	1,204	1,013	0	0	0,000	0,000
57	25,533	25,344	25,632	35549	3303	10,764	0,000	 V 			14,263	57554	2,606	0,000	0,838	1,013	0	0	0,000	0,000
58	25,921	25,632	26,251	213132	13865	15,372	0,000	 V 			14,495	72946	2,056	0,000	0,960	1,016	0	0	0,000	0,000
59	26,388	26,251	26,549	11971	1281	9,347	0,000	 V 			14,774	149122	1,006	0,000	1,419	1,019	0	0	0,000	0,000
60	26,703	26,549	26,795	8889	905	9,819	0,000	   			14,963	41218	3,639	0,000	0,789	1,013	0	0	0,000	0,000
61	26,939	26,795	27,061	20251	1653	12,252	0,000	 V 			15,104	50157	2,991	0,000	0,469	1,009	0	0	0,000	0,000
62	27,207	27,061	27,595	23916	1463	16,348	0,000	 V 			15,264	23123	6,487	0,000	0,447	1,011	0	0	0,000	0,000
63	28,227	27,925	28,480	12910	770	16,757	0,000	   			15,874	65467	2,291	0,878	1,764	1,040	0	0	0,000	0,000
64	28,639	28,491	29,013	7040	625	11,258	0,000	   			16,120	141952	1,057	1,768	1,104	1,015	0	0	0,000	0,000
65	29,349	29,109	29,557	10420	918	11,346	0,000	   			16,544	129189	1,161	0,884	2,252	1,026	0	0	0,000	0,000
66	29,708	29,557	29,813	4148	417	9,955	0,000	   			16,759	77837	1,927	0,000	0,955	1,013	0	0	0,000	0,000
67	29,877	29,813	30,080	3501	395	8,855	0,000	 V 			16,860	82866	1,810	0,000	0,401	1,006	0	0	0,000	0,000
68	30,699	30,421	30,880	15154	1074	14,108	0,000	   			17,351	90426	1,659	0,000	1,996	1,029	0	0	0,000	0,000
69	31,060	30,880	31,712	30775	2243	13,717	0,000	 V 			17,567	143998	1,042	0,000	0,981	1,012	0	0	0,000	0,000
70	34,051	32,725	34,101	373558	7582	49,267	0,000	   			19,355	10063	14,907	0,000	3,550	1,102	0	0	0,000	0,000
71	34,228	34,101	34,293	90592	10789	8,397	0,000	 V 			19,461	49085	3,056	0,000	0,179	1,005	0	0	0,000	0,000
72	34,336	34,293	34,411	53206	9668	5,503	0,000	 V 			19,526	246083	0,610	0,000	0,242	1,003	0	0	0,000	0,000
73	34,528	34,411	34,571	56294	5884	9,567	0,000	 V 			19,640	15207	9,864	0,000	0,275	1,006	0	0	0,000	0,000
74	34,613	34,571	34,720	48021	5568	8,624	0,000	 V 			19,691	3287	45,637	0,000	0,048	1,003	0	0	0,000	0,000
75	35,069	34,720	35,413	1007418	119753	8,413	0,000	 V 			19,964	705137	0,213	0,000	0,353	1,014	0	0	0,000	0,000
76	35,488	35,413	35,563	144607	20608	7,017	0,000	 V 			20,214	204638	0,733	0,000	1,744	1,013	0	0	0,000	0,000
77	35,594	35,563	35,733	112220	14723	7,622	0,000	 V 			20,277	81948	1,830	0,000	0,259	1,003	0	0	0,000	0,000
78	35,851	35,733	35,989	132953	10400	12,784	0,000	 V 			20,431	51961	2,887	0,000	0,457	1,008	0	0	0,000	0,000
79	36,038	35,989	36,096	42700	6852	6,232	0,000	 V 			20,543	1616	92,804	0,000	0,089	1,005	0	0	0,000	0,000
80	36,335	36,096	36,480	146960	7733	19,005	0,000	 V 			20,721	16217	9,250	0,000	0,126	1,009	0	0	0,000	0,000
81	36,787	36,480	36,917	98310	3760	26,148	0,000	 V 			20,991	0	0,000	0,000	0,000	1,013	0	0	0,000	0,000
82	37,047	36,917	37,152	32598	3047	10,698	0,000	 V 			21,146	118250	1,268	0,000	0,000	1,007	0	0	0,000	0,000
83	37,233	37,152	37,365	9923	1198	8,281	0,000	 V 			21,257	2387	62,843	0,000	0,107	1,005	0	0	0,000	0,000
84	38,920	38,667	39,968	1023517	37175	27,532	0,000	   			22,265	349189	0,430	2,931	1,018	1,047	0	0	0,000	0,000

[Compound Results(PDA)]
# of IDs	0

[PDA Multi Chromatogram(Ch1)]
# of Points	      4689
Interval(msec)	640
Start Time(min)	0
End Time(min)	50,0053
Intensity Units	mAU
Intensity Multiplier	1
Type	MultiChrom
Wavelength(nm)	254
Bandwidth(nm)	4
R.Time (min)	Intensity
0,00000	0
0,01067	0
0,02133	0
0,03200	0
0,04267	0
0,05333	0
0,06400	0
0,07467	0
0,08533	0
0,09600	0
0,10667	0
0,11733	1
0,12800	-3
0,13867	7
0,14933	3
0,16000	2
0,17067	-2
0,18133	-4
0,19200	-8
0,20267	-6
0,21333	-7
0,22400	-10
0,23467	-4
0,24533	-4
0,25600	-10
0,26667	-12
0,27733	-11
0,28800	-7
0,29867	-12
0,30933	-11
0,32000	-4
0,33067	-16
0,34133	-14
0,35200	-19
0,36267	-10
0,37333	-13
0,38400	-18
0,39467	-13
0,40533	-16
0,41600	-8
0,42667	-13
0,43733	-6
0,44800	-7
0,45867	-14
0,46933	-23
0,48000	-23
0,49067	-20
0,50133	-14
0,51200	-16
0,52267	-14
0,53333	-16
0,54400	-12
0,55467	-9
0,56533	-6
0,57600	-8
0,58667	-8
0,59733	-8
0,60800	-9
0,61867	-11
0,62933	-2
0,64000	-8
0,65067	-9
0,66133	-6
0,67200	-12
0,68267	-15
0,69333	-18
0,70400	-18
0,71467	-19
0,72533	-19
0,73600	-17
0,74667	-10
0,75733	-6
0,76800	-15
0,77867	-14
0,78933	-16
0,80000	-10
0,81067	-9
0,82133	-16
0,83200	-13
0,84267	-6
0,85333	-7
0,86400	-11
0,87467	-3
0,88533	-3
0,89600	-8
0,90667	-5
0,91733	-8
0,92800	-14
0,93867	-14
0,94933	-9
0,96000	-6
0,97067	-1
0,98133	-6
0,99200	-14
1,00267	-8
1,01333	-12
1,02400	-5
1,03467	-3
1,04533	-7
1,05600	-13
1,06667	-16
1,07733	-13
1,08800	-11
1,09867	-18
1,10933	-4
1,12000	-6
1,13067	-11
1,14133	-6
1,15200	-2
1,16267	-2
1,17333	4
1,18400	10
1,19467	16
1,20533	19
1,21600	20
1,22667	19
1,23733	20
1,24800	23
1,25867	20
1,26933	21
1,28000	22
1,29067	27
1,30133	47
1,31200	68
1,32267	116
1,33333	206
1,34400	315
1,35467	422
1,36533	501
1,37600	559
1,38667	637
1,39733	746
1,40800	933
1,41867	1212
1,42933	1571
1,44000	2008
1,45067	2531
1,46133	3264
1,47200	4309
1,48267	5591
1,49333	6862
1,50400	7928
1,51467	8794
1,52533	9542
1,53600	10266
1,54667	11058
1,55733	11898
1,56800	12921
1,57867	15590
1,58933	25694
1,60000	53591
1,61067	106253
1,62133	178503
1,63200	255380
1,64267	321813
1,65333	367711
1,66400	391251
1,67467	396058
1,68533	386279
1,69600	364300
1,70667	331286
1,71733	289722
1,72800	243323
1,73867	197128
1,74933	154693
1,76000	118228
1,77067	88734
1,78133	66584
1,79200	51235
1,80267	41872
1,81333	38653
1,82400	42458
1,83467	52338
1,84533	64131
1,85600	72571
1,86667	74858
1,87733	71318
1,88800	64072
1,89867	55416
1,90933	46914
1,92000	39494
1,93067	33418
1,94133	28671
1,95200	25059
1,96267	22330
1,97333	20269
1,98400	18720
1,99467	17586
2,00533	16879
2,01600	16841
2,02667	17852
2,03733	20219
2,04800	23846
2,05867	28111
2,06933	32120
2,08000	35098
2,09067	36659
2,10133	37008
2,11200	36885
2,12267	37462
2,13333	39789
2,14400	44002
2,15467	49002
2,16533	52937
2,17600	54236
2,18667	52347
2,19733	47829
2,20800	41789
2,21867	35416
2,22933	29490
2,24000	24463
2,25067	20410
2,26133	17256
2,27200	14854
2,28267	13070
2,29333	11766
2,30400	10843
2,31467	10192
2,32533	9734
2,33600	9419
2,34667	9180
2,35733	8979
2,36800	8812
2,37867	8654
2,38933	8494
2,40000	8333
2,41067	8175
2,42133	8040
2,43200	7963
2,44267	7962
2,45333	8049
2,46400	8185
2,47467	8328
2,48533	8412
2,49600	8420
2,50667	8348
2,51733	8260
2,52800	8284
2,53867	8659
2,54933	9765
2,56000	12104
2,57067	16202
2,58133	22217
2,59200	29810
2,60267	37910
2,61333	45114
2,62400	50071
2,63467	51967
2,64533	50755
2,65600	46977
2,66667	41607
2,67733	35605
2,68800	29723
2,69867	24489
2,70933	20097
2,72000	16599
2,73067	13890
2,74133	11856
2,75200	10369
2,76267	9299
2,77333	8590
2,78400	8160
2,79467	7952
2,80533	7922
2,81600	8046
2,82667	8273
2,83733	8555
2,84800	8853
2,85867	9141
2,86933	9394
2,88000	9588
2,89067	9706
2,90133	9742
2,91200	9700
2,92267	9576
2,93333	9357
2,94400	9056
2,95467	8717
2,96533	8350
2,97600	7998
2,98667	7648
2,99733	7320
3,00800	7016
3,01867	6707
3,02933	6430
3,04000	6183
3,05067	5970
3,06133	5797
3,07200	5673
3,08267	5589
3,09333	5555
3,10400	5552
3,11467	5590
3,12533	5666
3,13600	5768
3,14667	5911
3,15733	6087
3,16800	6285
3,17867	6515
3,18933	6766
3,20000	7039
3,21067	7333
3,22133	7662
3,23200	8025
3,24267	8405
3,25333	8779
3,26400	9099
3,27467	9304
3,28533	9374
3,29600	9284
3,30667	9077
3,31733	8775
3,32800	8428
3,33867	8081
3,34933	7757
3,36000	7467
3,37067	7237
3,38133	7051
3,39200	6909
3,40267	6788
3,41333	6686
3,42400	6601
3,43467	6509
3,44533	6431
3,45600	6365
3,46667	6327
3,47733	6368
3,48800	6516
3,49867	6799
3,50933	7131
3,52000	7334
3,53067	7277
3,54133	6946
3,55200	6451
3,56267	5936
3,57333	5487
3,58400	5131
3,59467	4879
3,60533	4707
3,61600	4599
3,62667	4544
3,63733	4534
3,64800	4553
3,65867	4595
3,66933	4659
3,68000	4759
3,69067	4887
3,70133	5043
3,71200	5254
3,72267	5508
3,73333	5796
3,74400	6105
3,75467	6418
3,76533	6704
3,77600	6936
3,78667	7098
3,79733	7167
3,80800	7147
3,81867	7037
3,82933	6861
3,84000	6642
3,85067	6387
3,86133	6135
3,87200	5909
3,88267	5711
3,89333	5543
3,90400	5395
3,91467	5278
3,92533	5170
3,93600	5074
3,94667	4995
3,95733	4912
3,96800	4833
3,97867	4753
3,98933	4684
4,00000	4623
4,01067	4567
4,02133	4531
4,03200	4502
4,04267	4493
4,05333	4494
4,06400	4505
4,07467	4547
4,08533	4578
4,09600	4630
4,10667	4712
4,11733	4793
4,12800	4886
4,13867	5011
4,14933	5136
4,16000	5281
4,17067	5427
4,18133	5602
4,19200	5787
4,20267	5992
4,21333	6210
4,22400	6467
4,23467	6719
4,24533	6985
4,25600	7251
4,26667	7503
4,27733	7751
4,28800	7962
4,29867	8128
4,30933	8242
4,32000	8303
4,33067	8295
4,34133	8236
4,35200	8119
4,36267	7968
4,37333	7777
4,38400	7568
4,39467	7352
4,40533	7129
4,41600	6928
4,42667	6728
4,43733	6544
4,44800	6379
4,45867	6241
4,46933	6116
4,48000	6012
4,49067	5923
4,50133	5834
4,51200	5756
4,52267	5666
4,53333	5563
4,54400	5443
4,55467	5343
4,56533	5220
4,57600	5099
4,58667	4986
4,59733	4885
4,60800	4775
4,61867	4692
4,62933	4618
4,64000	4558
4,65067	4499
4,66133	4453
4,67200	4420
4,68267	4381
4,69333	4350
4,70400	4326
4,71467	4315
4,72533	4301
4,73600	4291
4,74667	4300
4,75733	4308
4,76800	4314
4,77867	4324
4,78933	4323
4,80000	4327
4,81067	4337
4,82133	4331
4,83200	4328
4,84267	4318
4,85333	4310
4,86400	4294
4,87467	4273
4,88533	4254
4,89600	4250
4,90667	4241
4,91733	4239
4,92800	4250
4,93867	4253
4,94933	4278
4,96000	4316
4,97067	4363
4,98133	4423
4,99200	4491
5,00267	4567
5,01333	4650
5,02400	4738
5,03467	4825
5,04533	4901
5,05600	4974
5,06667	5034
5,07733	5082
5,08800	5112
5,09867	5139
5,10933	5149
5,12000	5150
5,13067	5133
5,14133	5105
5,15200	5070
5,16267	5025
5,17333	4969
5,18400	4923
5,19467	4868
5,20533	4812
5,21600	4756
5,22667	4690
5,23733	4633
5,24800	4585
5,25867	4537
5,26933	4485
5,28000	4444
5,29067	4417
5,30133	4396
5,31200	4373
5,32267	4357
5,33333	4340
5,34400	4338
5,35467	4342
5,36533	4338
5,37600	4340
5,38667	4345
5,39733	4364
5,40800	4379
5,41867	4404
5,42933	4431
5,44000	4457
5,45067	4499
5,46133	4536
5,47200	4564
5,48267	4595
5,49333	4617
5,50400	4629
5,51467	4623
5,52533	4610
5,53600	4600
5,54667	4574
5,55733	4551
5,56800	4531
5,57867	4505
5,58933	4503
5,60000	4501
5,61067	4495
5,62133	4503
5,63200	4520
5,64267	4548
5,65333	4581
5,66400	4606
5,67467	4647
5,68533	4681
5,69600	4732
5,70667	4792
5,71733	4854
5,72800	4911
5,73867	4976
5,74933	5032
5,76000	5100
5,77067	5147
5,78133	5182
5,79200	5207
5,80267	5218
5,81333	5220
5,82400	5204
5,83467	5198
5,84533	5190
5,85600	5197
5,86667	5241
5,87733	5326
5,88800	5462
5,89867	5693
5,90933	6009
5,92000	6470
5,93067	7089
5,94133	7880
5,95200	8841
5,96267	9953
5,97333	11200
5,98400	12516
5,99467	13831
6,00533	15069
6,01600	16141
6,02667	16987
6,03733	17547
6,04800	17809
6,05867	17777
6,06933	17485
6,08000	16975
6,09067	16328
6,10133	15591
6,11200	14825
6,12267	14077
6,13333	13378
6,14400	12737
6,15467	12160
6,16533	11661
6,17600	11227
6,18667	10850
6,19733	10530
6,20800	10273
6,21867	10086
6,22933	9951
6,24000	9914
6,25067	9975
6,26133	10142
6,27200	10469
6,28267	10961
6,29333	11666
6,30400	12583
6,31467	13734
6,32533	15112
6,33600	16716
6,34667	18499
6,35733	20402
6,36800	22333
6,37867	24198
6,38933	25892
6,40000	27315
6,41067	28355
6,42133	28956
6,43200	29077
6,44267	28708
6,45333	27894
6,46400	26679
6,47467	25128
6,48533	23359
6,49600	21453
6,50667	19525
6,51733	17629
6,52800	15855
6,53867	14229
6,54933	12781
6,56000	11529
6,57067	10453
6,58133	9558
6,59200	8826
6,60267	8243
6,61333	7763
6,62400	7402
6,63467	7118
6,64533	6908
6,65600	6746
6,66667	6634
6,67733	6554
6,68800	6514
6,69867	6495
6,70933	6490
6,72000	6506
6,73067	6523
6,74133	6556
6,75200	6588
6,76267	6618
6,77333	6654
6,78400	6689
6,79467	6731
6,80533	6765
6,81600	6810
6,82667	6847
6,83733	6883
6,84800	6916
6,85867	6947
6,86933	6968
6,88000	6977
6,89067	6981
6,90133	6981
6,91200	6982
6,92267	6961
6,93333	6947
6,94400	6928
6,95467	6908
6,96533	6885
6,97600	6874
6,98667	6864
6,99733	6855
7,00800	6847
7,01867	6853
7,02933	6861
7,04000	6880
7,05067	6914
7,06133	6951
7,07200	7001
7,08267	7092
7,09333	7202
7,10400	7334
7,11467	7494
7,12533	7678
7,13600	7888
7,14667	8124
7,15733	8379
7,16800	8634
7,17867	8889
7,18933	9146
7,20000	9379
7,21067	9572
7,22133	9733
7,23200	9868
7,24267	9942
7,25333	9994
7,26400	10006
7,27467	9998
7,28533	9972
7,29600	9929
7,30667	9876
7,31733	9837
7,32800	9783
7,33867	9736
7,34933	9701
7,36000	9665
7,37067	9626
7,38133	9585
7,39200	9540
7,40267	9475
7,41333	9416
7,42400	9365
7,43467	9303
7,44533	9256
7,45600	9211
7,46667	9181
7,47733	9170
7,48800	9177
7,49867	9215
7,50933	9274
7,52000	9369
7,53067	9486
7,54133	9640
7,55200	9802
7,56267	9990
7,57333	10180
7,58400	10367
7,59467	10558
7,60533	10717
7,61600	10863
7,62667	10961
7,63733	11022
7,64800	11039
7,65867	11021
7,66933	10955
7,68000	10856
7,69067	10738
7,70133	10599
7,71200	10444
7,72267	10304
7,73333	10171
7,74400	10053
7,75467	9960
7,76533	9864
7,77600	9791
7,78667	9718
7,79733	9643
7,80800	9564
7,81867	9477
7,82933	9380
7,84000	9272
7,85067	9159
7,86133	9044
7,87200	8941
7,88267	8843
7,89333	8764
7,90400	8701
7,91467	8672
7,92533	8653
7,93600	8674
7,94667	8713
7,95733	8782
7,96800	8868
7,97867	8971
7,98933	9081
8,00000	9196
8,01067	9298
8,02133	9407
8,03200	9510
8,04267	9614
8,05333	9736
8,06400	9896
8,07467	10108
8,08533	10418
8,09600	10851
8,10667	11437
8,11733	12196
8,12800	13129
8,13867	14233
8,14933	15453
8,16000	16697
8,17067	17900
8,18133	18977
8,19200	19847
8,20267	20490
8,21333	20879
8,22400	21052
8,23467	21021
8,24533	20852
8,25600	20598
8,26667	20297
8,27733	19997
8,28800	19714
8,29867	19461
8,30933	19251
8,32000	19083
8,33067	18950
8,34133	18853
8,35200	18777
8,36267	18714
8,37333	18656
8,38400	18585
8,39467	18507
8,40533	18387
8,41600	18222
8,42667	18018
8,43733	17751
8,44800	17427
8,45867	17058
8,46933	16641
8,48000	16205
8,49067	15747
8,50133	15299
8,51200	14870
8,52267	14457
8,53333	14078
8,54400	13718
8,55467	13407
8,56533	13122
8,57600	12887
8,58667	12695
8,59733	12537
8,60800	12418
8,61867	12329
8,62933	12251
8,64000	12204
8,65067	12164
8,66133	12133
8,67200	12089
8,68267	12032
8,69333	11970
8,70400	11894
8,71467	11818
8,72533	11739
8,73600	11674
8,74667	11616
8,75733	11579
8,76800	11580
8,77867	11641
8,78933	11757
8,80000	11931
8,81067	12174
8,82133	12476
8,83200	12834
8,84267	13249
8,85333	13715
8,86400	14199
8,87467	14704
8,88533	15233
8,89600	15788
8,90667	16385
8,91733	17025
8,92800	17740
8,93867	18537
8,94933	19432
8,96000	20423
8,97067	21491
8,98133	22588
8,99200	23661
9,00267	24643
9,01333	25476
9,02400	26066
9,03467	26381
9,04533	26378
9,05600	26051
9,06667	25413
9,07733	24527
9,08800	23427
9,09867	22209
9,10933	20927
9,12000	19650
9,13067	18438
9,14133	17332
9,15200	16343
9,16267	15495
9,17333	14773
9,18400	14176
9,19467	13706
9,20533	13331
9,21600	13036
9,22667	12807
9,23733	12628
9,24800	12489
9,25867	12368
9,26933	12281
9,28000	12195
9,29067	12120
9,30133	12036
9,31200	11966
9,32267	11881
9,33333	11806
9,34400	11727
9,35467	11641
9,36533	11551
9,37600	11467
9,38667	11385
9,39733	11303
9,40800	11238
9,41867	11176
9,42933	11123
9,44000	11104
9,45067	11105
9,46133	11127
9,47200	11191
9,48267	11295
9,49333	11446
9,50400	11637
9,51467	11889
9,52533	12191
9,53600	12556
9,54667	12964
9,55733	13435
9,56800	13955
9,57867	14533
9,58933	15156
9,60000	15829
9,61067	16524
9,62133	17243
9,63200	17951
9,64267	18634
9,65333	19264
9,66400	19791
9,67467	20189
9,68533	20450
9,69600	20542
9,70667	20469
9,71733	20224
9,72800	19854
9,73867	19364
9,74933	18812
9,76000	18225
9,77067	17663
9,78133	17146
9,79200	16714
9,80267	16368
9,81333	16110
9,82400	15957
9,83467	15888
9,84533	15868
9,85600	15884
9,86667	15907
9,87733	15920
9,88800	15916
9,89867	15868
9,90933	15786
9,92000	15660
9,93067	15508
9,94133	15324
9,95200	15136
9,96267	14937
9,97333	14736
9,98400	14556
9,99467	14378
10,00533	14204
10,01600	14063
10,02667	13931
10,03733	13803
10,04800	13672
10,05867	13551
10,06933	13433
10,08000	13323
10,09067	13220
10,10133	13117
10,11200	13030
10,12267	12934
10,13333	12868
10,14400	12806
10,15467	12752
10,16533	12715
10,17600	12687
10,18667	12665
10,19733	12661
10,20800	12667
10,21867	12680
10,22933	12702
10,24000	12741
10,25067	12804
10,26133	12897
10,27200	13009
10,28267	13166
10,29333	13364
10,30400	13623
10,31467	13960
10,32533	14416
10,33600	15023
10,34667	15842
10,35733	16938
10,36800	18363
10,37867	20169
10,38933	22415
10,40000	25139
10,41067	28321
10,42133	31930
10,43200	35868
10,44267	40037
10,45333	44259
10,46400	48386
10,47467	52190
10,48533	55498
10,49600	58125
10,50667	59964
10,51733	60915
10,52800	60960
10,53867	60099
10,54933	58437
10,56000	56070
10,57067	53153
10,58133	49817
10,59200	46241
10,60267	42566
10,61333	38939
10,62400	35450
10,63467	32203
10,64533	29237
10,65600	26603
10,66667	24287
10,67733	22317
10,68800	20657
10,69867	19280
10,70933	18164
10,72000	17269
10,73067	16582
10,74133	16048
10,75200	15663
10,76267	15394
10,77333	15234
10,78400	15150
10,79467	15132
10,80533	15156
10,81600	15213
10,82667	15280
10,83733	15327
10,84800	15362
10,85867	15350
10,86933	15304
10,88000	15220
10,89067	15104
10,90133	14958
10,91200	14806
10,92267	14676
10,93333	14580
10,94400	14594
10,95467	14762
10,96533	15177
10,97600	15987
10,98667	17377
10,99733	19606
11,00800	23045
11,01867	28142
11,02933	35486
11,04000	45673
11,05067	59468
11,06133	77522
11,07200	100319
11,08267	128194
11,09333	160854
11,10400	197827
11,11467	237608
11,12533	278553
11,13600	318229
11,14667	354382
11,15733	384505
11,16800	406767
11,17867	419769
11,18933	422965
11,20000	416604
11,21067	401520
11,22133	379207
11,23200	351313
11,24267	319725
11,25333	286326
11,26400	252609
11,27467	220076
11,28533	189551
11,29600	161829
11,30667	137179
11,31733	115834
11,32800	97596
11,33867	82294
11,34933	69602
11,36000	59199
11,37067	50712
11,38133	43840
11,39200	38280
11,40267	33827
11,41333	30267
11,42400	27407
11,43467	25151
11,44533	23360
11,45600	21954
11,46667	20861
11,47733	20027
11,48800	19394
11,49867	18918
11,50933	18558
11,52000	18293
11,53067	18088
11,54133	17929
11,55200	17795
11,56267	17671
11,57333	17559
11,58400	17450
11,59467	17340
11,60533	17239
11,61600	17122
11,62667	17003
11,63733	16880
11,64800	16763
11,65867	16638
11,66933	16515
11,68000	16404
11,69067	16303
11,70133	16217
11,71200	16151
11,72267	16114
11,73333	16098
11,74400	16112
11,75467	16150
11,76533	16205
11,77600	16275
11,78667	16343
11,79733	16412
11,80800	16478
11,81867	16547
11,82933	16598
11,84000	16629
11,85067	16650
11,86133	16658
11,87200	16656
11,88267	16646
11,89333	16637
11,90400	16615
11,91467	16591
11,92533	16584
11,93600	16580
11,94667	16572
11,95733	16593
11,96800	16625
11,97867	16679
11,98933	16747
12,00000	16815
12,01067	16901
12,02133	17006
12,03200	17123
12,04267	17246
12,05333	17387
12,06400	17540
12,07467	17715
12,08533	17940
12,09600	18198
12,10667	18515
12,11733	18914
12,12800	19405
12,13867	19970
12,14933	20612
12,16000	21326
12,17067	22078
12,18133	22814
12,19200	23514
12,20267	24113
12,21333	24574
12,22400	24862
12,23467	24972
12,24533	24898
12,25600	24652
12,26667	24265
12,27733	23775
12,28800	23232
12,29867	22671
12,30933	22143
12,32000	21663
12,33067	21255
12,34133	20913
12,35200	20658
12,36267	20478
12,37333	20353
12,38400	20267
12,39467	20239
12,40533	20242
12,41600	20256
12,42667	20295
12,43733	20358
12,44800	20430
12,45867	20509
12,46933	20590
12,48000	20674
12,49067	20771
12,50133	20855
12,51200	20950
12,52267	21049
12,53333	21150
12,54400	21255
12,55467	21370
12,56533	21492
12,57600	21631
12,58667	21774
12,59733	21917
12,60800	22058
12,61867	22182
12,62933	22291
12,64000	22361
12,65067	22390
12,66133	22399
12,67200	22387
12,68267	22353
12,69333	22326
12,70400	22324
12,71467	22374
12,72533	22495
12,73600	22722
12,74667	23052
12,75733	23488
12,76800	23999
12,77867	24550
12,78933	25120
12,80000	25631
12,81067	26040
12,82133	26298
12,83200	26378
12,84267	26271
12,85333	25967
12,86400	25514
12,87467	24935
12,88533	24288
12,89600	23590
12,90667	22909
12,91733	22251
12,92800	21667
12,93867	21145
12,94933	20698
12,96000	20328
12,97067	20035
12,98133	19802
12,99200	19622
13,00267	19491
13,01333	19411
13,02400	19369
13,03467	19382
13,04533	19453
13,05600	19575
13,06667	19749
13,07733	19989
13,08800	20276
13,09867	20638
13,10933	21100
13,12000	21837
13,13067	23232
13,14133	26337
13,15200	32924
13,16267	45595
13,17333	66508
13,18400	96255
13,19467	132544
13,20533	171201
13,21600	207685
13,22667	238405
13,23733	261705
13,24800	277296
13,25867	286101
13,26933	289354
13,28000	288338
13,29067	284176
13,30133	277716
13,31200	269624
13,32267	260371
13,33333	250373
13,34400	239848
13,35467	229055
13,36533	218130
13,37600	207240
13,38667	196500
13,39733	185970
13,40800	175789
13,41867	165939
13,42933	156533
13,44000	147540
13,45067	139039
13,46133	130983
13,47200	123417
13,48267	116315
13,49333	109677
13,50400	103467
13,51467	97699
13,52533	92314
13,53600	87318
13,54667	82660
13,55733	78333
13,56800	74311
13,57867	70559
13,58933	67094
13,60000	63845
13,61067	60852
13,62133	58069
13,63200	55505
13,64267	53133
13,65333	50963
13,66400	48961
13,67467	47135
13,68533	45461
13,69600	43911
13,70667	42480
13,71733	41149
13,72800	39901
13,73867	38711
13,74933	37606
13,76000	36565
13,77067	35600
13,78133	34715
13,79200	33918
13,80267	33220
13,81333	32618
13,82400	32118
13,83467	31706
13,84533	31385
13,85600	31127
13,86667	30896
13,87733	30689
13,88800	30469
13,89867	30225
13,90933	29925
13,92000	29580
13,93067	29172
13,94133	28733
13,95200	28254
13,96267	27763
13,97333	27275
13,98400	26799
13,99467	26350
14,00533	25942
14,01600	25591
14,02667	25281
14,03733	25012
14,04800	24762
14,05867	24558
14,06933	24374
14,08000	24200
14,09067	24043
14,10133	23889
14,11200	23751
14,12267	23639
14,13333	23546
14,14400	23496
14,15467	23493
14,16533	23545
14,17600	23684
14,18667	23895
14,19733	24178
14,20800	24556
14,21867	25002
14,22933	25502
14,24000	26019
14,25067	26548
14,26133	27049
14,27200	27482
14,28267	27819
14,29333	28046
14,30400	28152
14,31467	28126
14,32533	27955
14,33600	27680
14,34667	27309
14,35733	26874
14,36800	26386
14,37867	25888
14,38933	25402
14,40000	24943
14,41067	24533
14,42133	24187
14,43200	23916
14,44267	23708
14,45333	23583
14,46400	23533
14,47467	23574
14,48533	23701
14,49600	23912
14,50667	24225
14,51733	24606
14,52800	25061
14,53867	25575
14,54933	26130
14,56000	26697
14,57067	27238
14,58133	27739
14,59200	28137
14,60267	28436
14,61333	28609
14,62400	28651
14,63467	28555
14,64533	28334
14,65600	28019
14,66667	27641
14,67733	27223
14,68800	26802
14,69867	26406
14,70933	26043
14,72000	25739
14,73067	25495
14,74133	25313
14,75200	25174
14,76267	25072
14,77333	24997
14,78400	24936
14,79467	24887
14,80533	24827
14,81600	24749
14,82667	24673
14,83733	24581
14,84800	24474
14,85867	24369
14,86933	24264
14,88000	24175
14,89067	24103
14,90133	24051
14,91200	24046
14,92267	24080
14,93333	24181
14,94400	24366
14,95467	24687
14,96533	25218
14,97600	26069
14,98667	27403
14,99733	29464
15,00800	32596
15,01867	37239
15,02933	43987
15,04000	53466
15,05067	66449
15,06133	83559
15,07200	105481
15,08267	132310
15,09333	164074
15,10400	199948
15,11467	238852
15,12533	278782
15,13600	317651
15,14667	352922
15,15733	382370
15,16800	404064
15,17867	416672
15,18933	419595
15,20000	413036
15,21067	397780
15,22133	375341
15,23200	347299
15,24267	315716
15,25333	282278
15,26400	248836
15,27467	216602
15,28533	186763
15,29600	159830
15,30667	136325
15,31733	116282
15,32800	99636
15,33867	86099
15,34933	75303
15,36000	66925
15,37067	60543
15,38133	55817
15,39200	52353
15,40267	49868
15,41333	48041
15,42400	46656
15,43467	45489
15,44533	44393
15,45600	43255
15,46667	42023
15,47733	40668
15,48800	39221
15,49867	37731
15,50933	36250
15,52000	34852
15,53067	33620
15,54133	32602
15,55200	31842
15,56267	31368
15,57333	31178
15,58400	31275
15,59467	31617
15,60533	32149
15,61600	32816
15,62667	33524
15,63733	34208
15,64800	34811
15,65867	35243
15,66933	35488
15,68000	35510
15,69067	35308
15,70133	34918
15,71200	34380
15,72267	33725
15,73333	33003
15,74400	32277
15,75467	31578
15,76533	30941
15,77600	30368
15,78667	29861
15,79733	29420
15,80800	29038
15,81867	28699
15,82933	28388
15,84000	28085
15,85067	27807
15,86133	27536
15,87200	27274
15,88267	27018
15,89333	26780
15,90400	26559
15,91467	26348
15,92533	26176
15,93600	26015
15,94667	25881
15,95733	25776
15,96800	25700
15,97867	25655
15,98933	25631
16,00000	25628
16,01067	25657
16,02133	25703
16,03200	25774
16,04267	25862
16,05333	25953
16,06400	26056
16,07467	26177
16,08533	26296
16,09600	26419
16,10667	26562
16,11733	26705
16,12800	26858
16,13867	27007
16,14933	27191
16,16000	27368
16,17067	27575
16,18133	27776
16,19200	27962
16,20267	28168
16,21333	28336
16,22400	28487
16,23467	28608
16,24533	28704
16,25600	28762
16,26667	28802
16,27733	28795
16,28800	28758
16,29867	28701
16,30933	28626
16,32000	28525
16,33067	28413
16,34133	28283
16,35200	28158
16,36267	28016
16,37333	27877
16,38400	27730
16,39467	27583
16,40533	27450
16,41600	27309
16,42667	27169
16,43733	27024
16,44800	26872
16,45867	26729
16,46933	26588
16,48000	26448
16,49067	26319
16,50133	26188
16,51200	26070
16,52267	25963
16,53333	25862
16,54400	25759
16,55467	25672
16,56533	25608
16,57600	25554
16,58667	25533
16,59733	25540
16,60800	25579
16,61867	25679
16,62933	25837
16,64000	26076
16,65067	26382
16,66133	26773
16,67200	27246
16,68267	27782
16,69333	28384
16,70400	29012
16,71467	29619
16,72533	30195
16,73600	30702
16,74667	31109
16,75733	31372
16,76800	31494
16,77867	31455
16,78933	31264
16,80000	30920
16,81067	30447
16,82133	29890
16,83200	29258
16,84267	28598
16,85333	27941
16,86400	27320
16,87467	26755
16,88533	26289
16,89600	25960
16,90667	25780
16,91733	25816
16,92800	26118
16,93867	26749
16,94933	27808
16,96000	29392
16,97067	31614
16,98133	34630
16,99200	38555
17,00267	43574
17,01333	49766
17,02400	57280
17,03467	66125
17,04533	76324
17,05600	87730
17,06667	100147
17,07733	113187
17,08800	126459
17,09867	139375
17,10933	151368
17,12000	161827
17,13067	170179
17,14133	176016
17,15200	178979
17,16267	178932
17,17333	175926
17,18400	170143
17,19467	162029
17,20533	152004
17,21600	140694
17,22667	128570
17,23733	116253
17,24800	104154
17,25867	92711
17,26933	82144
17,28000	72654
17,29067	64306
17,30133	57118
17,31200	51038
17,32267	45953
17,33333	41773
17,34400	38348
17,35467	35579
17,36533	33339
17,37600	31549
17,38667	30141
17,39733	29055
17,40800	28230
17,41867	27656
17,42933	27317
17,44000	27199
17,45067	27303
17,46133	27635
17,47200	28183
17,48267	28939
17,49333	29888
17,50400	30994
17,51467	32218
17,52533	33502
17,53600	34761
17,54667	35944
17,55733	36978
17,56800	37802
17,57867	38355
17,58933	38637
17,60000	38616
17,61067	38326
17,62133	37817
17,63200	37144
17,64267	36358
17,65333	35571
17,66400	34835
17,67467	34257
17,68533	33935
17,69600	33945
17,70667	34394
17,71733	35384
17,72800	37022
17,73867	39391
17,74933	42569
17,76000	46604
17,77067	51482
17,78133	57111
17,79200	63349
17,80267	69945
17,81333	76614
17,82400	82992
17,83467	88721
17,84533	93455
17,85600	96895
17,86667	98821
17,87733	99127
17,88800	97839
17,89867	95068
17,90933	91016
17,92000	85976
17,93067	80250
17,94133	74180
17,95200	68025
17,96267	62054
17,97333	56429
17,98400	51335
17,99467	46814
18,00533	42892
18,01600	39563
18,02667	36773
18,03733	34483
18,04800	32610
18,05867	31095
18,06933	29877
18,08000	28897
18,09067	28120
18,10133	27497
18,11200	27001
18,12267	26617
18,13333	26326
18,14400	26112
18,15467	25981
18,16533	25899
18,17600	25875
18,18667	25906
18,19733	25962
18,20800	26038
18,21867	26120
18,22933	26191
18,24000	26233
18,25067	26254
18,26133	26249
18,27200	26207
18,28267	26142
18,29333	26043
18,30400	25929
18,31467	25809
18,32533	25679
18,33600	25552
18,34667	25436
18,35733	25329
18,36800	25227
18,37867	25140
18,38933	25074
18,40000	25021
18,41067	24977
18,42133	24938
18,43200	24912
18,44267	24874
18,45333	24850
18,46400	24819
18,47467	24796
18,48533	24756
18,49600	24711
18,50667	24656
18,51733	24599
18,52800	24538
18,53867	24469
18,54933	24385
18,56000	24306
18,57067	24224
18,58133	24151
18,59200	24090
18,60267	24040
18,61333	24014
18,62400	24010
18,63467	24033
18,64533	24104
18,65600	24215
18,66667	24370
18,67733	24604
18,68800	24889
18,69867	25243
18,70933	25687
18,72000	26220
18,73067	26834
18,74133	27531
18,75200	28286
18,76267	29088
18,77333	29906
18,78400	30704
18,79467	31443
18,80533	32090
18,81600	32620
18,82667	32987
18,83733	33188
18,84800	33223
18,85867	33087
18,86933	32823
18,88000	32438
18,89067	31974
18,90133	31458
18,91200	30940
18,92267	30434
18,93333	29967
18,94400	29559
18,95467	29212
18,96533	28948
18,97600	28762
18,98667	28668
18,99733	28670
19,00800	28781
19,01867	28990
19,02933	29328
19,04000	29797
19,05067	30411
19,06133	31176
19,07200	32101
19,08267	33191
19,09333	34445
19,10400	35853
19,11467	37386
19,12533	38998
19,13600	40656
19,14667	42267
19,15733	43788
19,16800	45114
19,17867	46170
19,18933	46887
19,20000	47228
19,21067	47176
19,22133	46707
19,23200	45870
19,24267	44722
19,25333	43314
19,26400	41744
19,27467	40079
19,28533	38393
19,29600	36764
19,30667	35225
19,31733	33823
19,32800	32566
19,33867	31467
19,34933	30510
19,36000	29681
19,37067	28982
19,38133	28383
19,39200	27869
19,40267	27427
19,41333	27062
19,42400	26732
19,43467	26470
19,44533	26238
19,45600	26046
19,46667	25882
19,47733	25758
19,48800	25670
19,49867	25628
19,50933	25628
19,52000	25705
19,53067	25871
19,54133	26128
19,55200	26510
19,56267	27056
19,57333	27763
19,58400	28643
19,59467	29688
19,60533	30865
19,61600	32142
19,62667	33442
19,63733	34713
19,64800	35865
19,65867	36839
19,66933	37575
19,68000	38023
19,69067	38167
19,70133	38017
19,71200	37614
19,72267	36988
19,73333	36228
19,74400	35379
19,75467	34520
19,76533	33728
19,77600	33068
19,78667	32585
19,79733	32336
19,80800	32355
19,81867	32666
19,82933	33277
19,84000	34192
19,85067	35370
19,86133	36774
19,87200	38328
19,88267	39945
19,89333	41530
19,90400	42969
19,91467	44157
19,92533	45014
19,93600	45486
19,94667	45523
19,95733	45130
19,96800	44328
19,97867	43171
19,98933	41759
20,00000	40146
20,01067	38435
20,02133	36703
20,03200	35022
20,04267	33434
20,05333	31969
20,06400	30658
20,07467	29502
20,08533	28512
20,09600	27650
20,10667	26930
20,11733	26319
20,12800	25812
20,13867	25395
20,14933	25068
20,16000	24817
20,17067	24636
20,18133	24513
20,19200	24460
20,20267	24480
20,21333	24584
20,22400	24809
20,23467	25165
20,24533	25690
20,25600	26421
20,26667	27410
20,27733	28682
20,28800	30274
20,29867	32166
20,30933	34352
20,32000	36762
20,33067	39289
20,34133	41808
20,35200	44162
20,36267	46187
20,37333	47740
20,38400	48713
20,39467	49031
20,40533	48670
20,41600	47696
20,42667	46183
20,43733	44267
20,44800	42081
20,45867	39785
20,46933	37499
20,48000	35337
20,49067	33353
20,50133	31587
20,51200	30079
20,52267	28812
20,53333	27781
20,54400	26943
20,55467	26273
20,56533	25745
20,57600	25333
20,58667	25007
20,59733	24761
20,60800	24577
20,61867	24430
20,62933	24320
20,64000	24237
20,65067	24177
20,66133	24131
20,67200	24095
20,68267	24060
20,69333	24038
20,70400	24015
20,71467	23996
20,72533	23986
20,73600	23990
20,74667	23987
20,75733	24004
20,76800	24022
20,77867	24046
20,78933	24080
20,80000	24110
20,81067	24141
20,82133	24162
20,83200	24183
20,84267	24188
20,85333	24190
20,86400	24175
20,87467	24152
20,88533	24140
20,89600	24104
20,90667	24076
20,91733	24053
20,92800	24049
20,93867	24060
20,94933	24095
20,96000	24164
20,97067	24273
20,98133	24417
20,99200	24599
21,00267	24818
21,01333	25045
21,02400	25298
21,03467	25540
21,04533	25774
21,05600	25964
21,06667	26114
21,07733	26204
21,08800	26237
21,09867	26198
21,10933	26098
21,12000	25950
21,13067	25766
21,14133	25541
21,15200	25305
21,16267	25069
21,17333	24835
21,18400	24626
21,19467	24439
21,20533	24295
21,21600	24175
21,22667	24108
21,23733	24087
21,24800	24111
21,25867	24193
21,26933	24329
21,28000	24541
21,29067	24820
21,30133	25154
21,31200	25571
21,32267	26048
21,33333	26588
21,34400	27202
21,35467	27854
21,36533	28572
21,37600	29343
21,38667	30178
21,39733	31084
21,40800	32102
21,41867	33298
21,42933	34745
21,44000	36530
21,45067	38795
21,46133	41647
21,47200	45237
21,48267	49641
21,49333	54980
21,50400	61214
21,51467	68329
21,52533	76109
21,53600	84339
21,54667	92632
21,55733	100645
21,56800	107911
21,57867	114016
21,58933	118564
21,60000	121292
21,61067	122038
21,62133	120779
21,63200	117608
21,64267	112746
21,65333	106511
21,66400	99296
21,67467	91446
21,68533	83388
21,69600	75428
21,70667	67854
21,71733	60865
21,72800	54591
21,73867	49072
21,74933	44338
21,76000	40323
21,77067	36998
21,78133	34268
21,79200	32040
21,80267	30244
21,81333	28815
21,82400	27676
21,83467	26786
21,84533	26085
21,85600	25539
21,86667	25124
21,87733	24801
21,88800	24558
21,89867	24373
21,90933	24242
21,92000	24139
21,93067	24064
21,94133	23995
21,95200	23952
21,96267	23911
21,97333	23878
21,98400	23859
21,99467	23843
22,00533	23833
22,01600	23831
22,02667	23839
22,03733	23845
22,04800	23860
22,05867	23889
22,06933	23906
22,08000	23930
22,09067	23949
22,10133	23949
22,11200	23929
22,12267	23898
22,13333	23845
22,14400	23775
22,15467	23692
22,16533	23589
22,17600	23493
22,18667	23409
22,19733	23328
22,20800	23264
22,21867	23230
22,22933	23203
22,24000	23190
22,25067	23192
22,26133	23204
22,27200	23210
22,28267	23229
22,29333	23257
22,30400	23273
22,31467	23295
22,32533	23319
22,33600	23345
22,34667	23388
22,35733	23440
22,36800	23521
22,37867	23614
22,38933	23714
22,40000	23832
22,41067	23975
22,42133	24110
22,43200	24245
22,44267	24381
22,45333	24493
22,46400	24565
22,47467	24598
22,48533	24586
22,49600	24522
22,50667	24431
22,51733	24290
22,52800	24136
22,53867	23967
22,54933	23787
22,56000	23636
22,57067	23512
22,58133	23420
22,59200	23411
22,60267	23488
22,61333	23683
22,62400	24023
22,63467	24555
22,64533	25321
22,65600	26353
22,66667	27706
22,67733	29402
22,68800	31434
22,69867	33777
22,70933	36370
22,72000	39122
22,73067	41884
22,74133	44507
22,75200	46813
22,76267	48650
22,77333	49874
22,78400	50408
22,79467	50236
22,80533	49385
22,81600	47926
22,82667	45985
22,83733	43713
22,84800	41260
22,85867	38767
22,86933	36361
22,88000	34119
22,89067	32118
22,90133	30359
22,91200	28891
22,92267	27669
22,93333	26678
22,94400	25896
22,95467	25290
22,96533	24821
22,97600	24482
22,98667	24225
22,99733	24026
23,00800	23886
23,01867	23772
23,02933	23689
23,04000	23616
23,05067	23560
23,06133	23520
23,07200	23476
23,08267	23447
23,09333	23430
23,10400	23401
23,11467	23379
23,12533	23358
23,13600	23321
23,14667	23293
23,15733	23263
23,16800	23220
23,17867	23174
23,18933	23130
23,20000	23085
23,21067	23056
23,22133	23029
23,23200	22998
23,24267	22995
23,25333	23015
23,26400	23044
23,27467	23094
23,28533	23160
23,29600	23236
23,30667	23341
23,31733	23440
23,32800	23561
23,33867	23692
23,34933	23824
23,36000	23953
23,37067	24088
23,38133	24209
23,39200	24325
23,40267	24414
23,41333	24469
23,42400	24507
23,43467	24490
23,44533	24439
23,45600	24350
23,46667	24229
23,47733	24064
23,48800	23874
23,49867	23669
23,50933	23448
23,52000	23237
23,53067	23012
23,54133	22809
23,55200	22624
23,56267	22452
23,57333	22304
23,58400	22173
23,59467	22060
23,60533	21973
23,61600	21906
23,62667	21865
23,63733	21846
23,64800	21861
23,65867	21915
23,66933	21996
23,68000	22121
23,69067	22290
23,70133	22480
23,71200	22696
23,72267	22917
23,73333	23127
23,74400	23314
23,75467	23456
23,76533	23537
23,77600	23555
23,78667	23518
23,79733	23423
23,80800	23261
23,81867	23082
23,82933	22880
23,84000	22679
23,85067	22476
23,86133	22308
23,87200	22152
23,88267	22009
23,89333	21908
23,90400	21830
23,91467	21776
23,92533	21758
23,93600	21772
23,94667	21815
23,95733	21924
23,96800	22078
23,97867	22292
23,98933	22562
24,00000	22913
24,01067	23311
24,02133	23772
24,03200	24267
24,04267	24812
24,05333	25363
24,06400	25925
24,07467	26479
24,08533	26992
24,09600	27443
24,10667	27842
24,11733	28150
24,12800	28360
24,13867	28457
24,14933	28457
24,16000	28358
24,17067	28149
24,18133	27835
24,19200	27443
24,20267	26995
24,21333	26495
24,22400	26002
24,23467	25515
24,24533	25070
24,25600	24683
24,26667	24370
24,27733	24141
24,28800	24002
24,29867	23936
24,30933	23950
24,32000	24018
24,33067	24106
24,34133	24221
24,35200	24313
24,36267	24381
24,37333	24407
24,38400	24382
24,39467	24295
24,40533	24144
24,41600	23946
24,42667	23700
24,43733	23417
24,44800	23117
24,45867	22814
24,46933	22516
24,48000	22234
24,49067	21983
24,50133	21768
24,51200	21584
24,52267	21449
24,53333	21355
24,54400	21283
24,55467	21268
24,56533	21280
24,57600	21336
24,58667	21414
24,59733	21523
24,60800	21646
24,61867	21771
24,62933	21904
24,64000	22017
24,65067	22100
24,66133	22148
24,67200	22166
24,68267	22147
24,69333	22080
24,70400	21969
24,71467	21842
24,72533	21686
24,73600	21511
24,74667	21339
24,75733	21155
24,76800	20979
24,77867	20832
24,78933	20696
24,80000	20582
24,81067	20495
24,82133	20430
24,83200	20390
24,84267	20372
24,85333	20373
24,86400	20389
24,87467	20401
24,88533	20427
24,89600	20443
24,90667	20471
24,91733	20475
24,92800	20489
24,93867	20476
24,94933	20462
24,96000	20414
24,97067	20372
24,98133	20325
24,99200	20272
25,00267	20220
25,01333	20161
25,02400	20130
25,03467	20094
25,04533	20065
25,05600	20050
25,06667	20058
25,07733	20065
25,08800	20082
25,09867	20112
25,10933	20155
25,12000	20196
25,13067	20247
25,14133	20296
25,15200	20340
25,16267	20384
25,17333	20428
25,18400	20461
25,19467	20493
25,20533	20508
25,21600	20529
25,22667	20532
25,23733	20524
25,24800	20503
25,25867	20469
25,26933	20432
25,28000	20399
25,29067	20365
25,30133	20318
25,31200	20284
25,32267	20247
25,33333	20229
25,34400	20229
25,35467	20245
25,36533	20291
25,37600	20368
25,38667	20471
25,39733	20618
25,40800	20792
25,41867	20996
25,42933	21230
25,44000	21506
25,45067	21790
25,46133	22089
25,47200	22377
25,48267	22643
25,49333	22875
25,50400	23073
25,51467	23208
25,52533	23287
25,53600	23299
25,54667	23253
25,55733	23154
25,56800	23013
25,57867	22854
25,58933	22680
25,60000	22529
25,61067	22397
25,62133	22305
25,63200	22273
25,64267	22304
25,65333	22404
25,66400	22585
25,67467	22839
25,68533	23155
25,69600	23521
25,70667	23940
25,71733	24379
25,72800	24815
25,73867	25229
25,74933	25623
25,76000	25971
25,77067	26291
25,78133	26588
25,79200	26892
25,80267	27228
25,81333	27631
25,82400	28114
25,83467	28697
25,84533	29397
25,85600	30190
25,86667	31019
25,87733	31855
25,88800	32609
25,89867	33222
25,90933	33643
25,92000	33811
25,93067	33713
25,94133	33343
25,95200	32722
25,96267	31894
25,97333	30934
25,98400	29876
25,99467	28792
26,00533	27742
26,01600	26765
26,02667	25864
26,03733	25071
26,04800	24380
26,05867	23776
26,06933	23261
26,08000	22814
26,09067	22421
26,10133	22077
26,11200	21775
26,12267	21502
26,13333	21277
26,14400	21067
26,15467	20895
26,16533	20743
26,17600	20625
26,18667	20521
26,19733	20444
26,20800	20379
26,21867	20318
26,22933	20292
26,24000	20260
26,25067	20247
26,26133	20250
26,27200	20273
26,28267	20327
26,29333	20389
26,30400	20485
26,31467	20587
26,32533	20710
26,33600	20822
26,34667	20925
26,35733	21023
26,36800	21105
26,37867	21151
26,38933	21166
26,40000	21139
26,41067	21089
26,42133	21003
26,43200	20893
26,44267	20757
26,45333	20619
26,46400	20478
26,47467	20342
26,48533	20220
26,49600	20109
26,50667	20004
26,51733	19952
26,52800	19897
26,53867	19870
26,54933	19864
26,56000	19872
26,57067	19892
26,58133	19932
26,59200	19988
26,60267	20055
26,61333	20128
26,62400	20211
26,63467	20296
26,64533	20377
26,65600	20442
26,66667	20505
26,67733	20565
26,68800	20588
26,69867	20596
26,70933	20595
26,72000	20580
26,73067	20548
26,74133	20509
26,75200	20459
26,76267	20412
26,77333	20369
26,78400	20345
26,79467	20323
26,80533	20323
26,81600	20327
26,82667	20362
26,83733	20414
26,84800	20491
26,85867	20572
26,86933	20674
26,88000	20767
26,89067	20853
26,90133	20940
26,91200	21013
26,92267	21046
26,93333	21076
26,94400	21077
26,95467	21050
26,96533	20997
26,97600	20929
26,98667	20843
26,99733	20751
27,00800	20664
27,01867	20585
27,02933	20508
27,04000	20461
27,05067	20437
27,06133	20415
27,07200	20431
27,08267	20441
27,09333	20458
27,10400	20488
27,11467	20516
27,12533	20541
27,13600	20552
27,14667	20558
27,15733	20571
27,16800	20580
27,17867	20586
27,18933	20578
27,20000	20582
27,21067	20586
27,22133	20564
27,23200	20547
27,24267	20525
27,25333	20479
27,26400	20421
27,27467	20344
27,28533	20265
27,29600	20171
27,30667	20048
27,31733	19936
27,32800	19828
27,33867	19710
27,34933	19604
27,36000	19513
27,37067	19427
27,38133	19355
27,39200	19290
27,40267	19245
27,41333	19194
27,42400	19145
27,43467	19104
27,44533	19074
27,45600	19029
27,46667	18989
27,47733	18947
27,48800	18914
27,49867	18878
27,50933	18841
27,52000	18807
27,53067	18776
27,54133	18747
27,55200	18724
27,56267	18711
27,57333	18691
27,58400	18686
27,59467	18686
27,60533	18691
27,61600	18694
27,62667	18703
27,63733	18717
27,64800	18725
27,65867	18729
27,66933	18733
27,68000	18725
27,69067	18717
27,70133	18706
27,71200	18689
27,72267	18666
27,73333	18645
27,74400	18611
27,75467	18573
27,76533	18537
27,77600	18510
27,78667	18478
27,79733	18456
27,80800	18438
27,81867	18431
27,82933	18432
27,84000	18440
27,85067	18439
27,86133	18434
27,87200	18441
27,88267	18449
27,89333	18442
27,90400	18445
27,91467	18434
27,92533	18427
27,93600	18429
27,94667	18434
27,95733	18435
27,96800	18451
27,97867	18469
27,98933	18500
28,00000	18525
28,01067	18563
28,02133	18603
28,03200	18643
28,04267	18683
28,05333	18730
28,06400	18769
28,07467	18802
28,08533	18836
28,09600	18857
28,10667	18874
28,11733	18891
28,12800	18898
28,13867	18905
28,14933	18914
28,16000	18925
28,17067	18929
28,18133	18936
28,19200	18948
28,20267	18948
28,21333	18955
28,22400	18963
28,23467	18961
28,24533	18950
28,25600	18930
28,26667	18896
28,27733	18858
28,28800	18818
28,29867	18756
28,30933	18697
28,32000	18626
28,33067	18545
28,34133	18470
28,35200	18397
28,36267	18330
28,37333	18274
28,38400	18230
28,39467	18172
28,40533	18144
28,41600	18111
28,42667	18080
28,43733	18055
28,44800	18033
28,45867	18017
28,46933	18007
28,48000	17996
28,49067	18002
28,50133	18002
28,51200	18019
28,52267	18035
28,53333	18055
28,54400	18091
28,55467	18137
28,56533	18183
28,57600	18221
28,58667	18270
28,59733	18316
28,60800	18359
28,61867	18391
28,62933	18412
28,64000	18418
28,65067	18409
28,66133	18381
28,67200	18350
28,68267	18301
28,69333	18243
28,70400	18188
28,71467	18121
28,72533	18062
28,73600	17995
28,74667	17940
28,75733	17875
28,76800	17816
28,77867	17769
28,78933	17731
28,80000	17691
28,81067	17670
28,82133	17637
28,83200	17612
28,84267	17584
28,85333	17560
28,86400	17536
28,87467	17518
28,88533	17497
28,89600	17477
28,90667	17470
28,91733	17453
28,92800	17440
28,93867	17422
28,94933	17405
28,96000	17378
28,97067	17357
28,98133	17338
28,99200	17319
29,00267	17291
29,01333	17264
29,02400	17250
29,03467	17227
29,04533	17213
29,05600	17192
29,06667	17193
29,07733	17172
29,08800	17165
29,09867	17163
29,10933	17158
29,12000	17163
29,13067	17176
29,14133	17187
29,15200	17200
29,16267	17219
29,17333	17250
29,18400	17291
29,19467	17321
29,20533	17364
29,21600	17396
29,22667	17438
29,23733	17481
29,24800	17531
29,25867	17587
29,26933	17645
29,28000	17701
29,29067	17761
29,30133	17820
29,31200	17874
29,32267	17922
29,33333	17950
29,34400	17960
29,35467	17960
29,36533	17920
29,37600	17867
29,38667	17815
29,39733	17733
29,40800	17650
29,41867	17573
29,42933	17485
29,44000	17397
29,45067	17320
29,46133	17237
29,47200	17175
29,48267	17113
29,49333	17061
29,50400	17023
29,51467	16987
29,52533	16964
29,53600	16951
29,54667	16943
29,55733	16941
29,56800	16945
29,57867	16950
29,58933	16967
29,60000	16985
29,61067	17022
29,62133	17058
29,63200	17093
29,64267	17129
29,65333	17168
29,66400	17206
29,67467	17227
29,68533	17239
29,69600	17252
29,70667	17260
29,71733	17256
29,72800	17237
29,73867	17214
29,74933	17192
29,76000	17168
29,77067	17134
29,78133	17112
29,79200	17101
29,80267	17088
29,81333	17079
29,82400	17084
29,83467	17097
29,84533	17108
29,85600	17115
29,86667	17124
29,87733	17130
29,88800	17122
29,89867	17114
29,90933	17096
29,92000	17073
29,93067	17041
29,94133	17010
29,95200	16958
29,96267	16912
29,97333	16870
29,98400	16826
29,99467	16790
30,00533	16741
30,01600	16708
30,02667	16682
30,03733	16656
30,04800	16629
30,05867	16616
30,06933	16610
30,08000	16604
30,09067	16605
30,10133	16609
30,11200	16616
30,12267	16632
30,13333	16641
30,14400	16648
30,15467	16642
30,16533	16639
30,17600	16645
30,18667	16640
30,19733	16631
30,20800	16620
30,21867	16605
30,22933	16578
30,24000	16565
30,25067	16538
30,26133	16507
30,27200	16487
30,28267	16473
30,29333	16460
30,30400	16438
30,31467	16422
30,32533	16409
30,33600	16398
30,34667	16384
30,35733	16390
30,36800	16386
30,37867	16380
30,38933	16376
30,40000	16376
30,41067	16375
30,42133	16371
30,43200	16377
30,44267	16378
30,45333	16380
30,46400	16391
30,47467	16400
30,48533	16419
30,49600	16446
30,50667	16459
30,51733	16488
30,52800	16521
30,53867	16557
30,54933	16600
30,56000	16649
30,57067	16710
30,58133	16767
30,59200	16840
30,60267	16918
30,61333	16991
30,62400	17064
30,63467	17131
30,64533	17202
30,65600	17260
30,66667	17305
30,67733	17344
30,68800	17361
30,69867	17370
30,70933	17361
30,72000	17331
30,73067	17284
30,74133	17242
30,75200	17193
30,76267	17135
30,77333	17072
30,78400	17004
30,79467	16945
30,80533	16884
30,81600	16834
30,82667	16791
30,83733	16749
30,84800	16723
30,85867	16706
30,86933	16697
30,88000	16692
30,89067	16719
30,90133	16753
30,91200	16800
30,92267	16867
30,93333	16948
30,94400	17048
30,95467	17180
30,96533	17329
30,97600	17483
30,98667	17660
30,99733	17836
31,00800	18009
31,01867	18162
31,02933	18290
31,04000	18377
31,05067	18425
31,06133	18442
31,07200	18409
31,08267	18323
31,09333	18196
31,10400	18046
31,11467	17867
31,12533	17680
31,13600	17501
31,14667	17315
31,15733	17138
31,16800	16999
31,17867	16870
31,18933	16753
31,20000	16663
31,21067	16593
31,22133	16528
31,23200	16496
31,24267	16465
31,25333	16440
31,26400	16424
31,27467	16411
31,28533	16407
31,29600	16395
31,30667	16389
31,31733	16371
31,32800	16364
31,33867	16353
31,34933	16351
31,36000	16338
31,37067	16331
31,38133	16330
31,39200	16328
31,40267	16330
31,41333	16320
31,42400	16308
31,43467	16306
31,44533	16294
31,45600	16289
31,46667	16286
31,47733	16275
31,48800	16270
31,49867	16255
31,50933	16240
31,52000	16223
31,53067	16210
31,54133	16199
31,55200	16195
31,56267	16177
31,57333	16164
31,58400	16144
31,59467	16132
31,60533	16109
31,61600	16094
31,62667	16083
31,63733	16062
31,64800	16053
31,65867	16042
31,66933	16038
31,68000	16031
31,69067	16026
31,70133	16024
31,71200	16022
31,72267	16033
31,73333	16033
31,74400	16034
31,75467	16046
31,76533	16043
31,77600	16052
31,78667	16052
31,79733	16053
31,80800	16051
31,81867	16056
31,82933	16053
31,84000	16054
31,85067	16046
31,86133	16042
31,87200	16036
31,88267	16032
31,89333	16019
31,90400	16017
31,91467	16014
31,92533	16014
31,93600	16005
31,94667	15998
31,95733	15995
31,96800	15991
31,97867	15982
31,98933	15981
32,00000	15983
32,01067	15994
32,02133	15997
32,03200	15997
32,04267	16000
32,05333	16002
32,06400	16014
32,07467	16018
32,08533	16028
32,09600	16036
32,10667	16040
32,11733	16044
32,12800	16046
32,13867	16042
32,14933	16028
32,16000	16032
32,17067	16016
32,18133	15995
32,19200	15994
32,20267	15993
32,21333	15979
32,22400	15980
32,23467	15985
32,24533	15980
32,25600	15978
32,26667	15988
32,27733	15994
32,28800	16001
32,29867	16008
32,30933	16012
32,32000	16025
32,33067	16037
32,34133	16040
32,35200	16046
32,36267	16058
32,37333	16076
32,38400	16082
32,39467	16098
32,40533	16109
32,41600	16127
32,42667	16146
32,43733	16177
32,44800	16203
32,45867	16245
32,46933	16280
32,48000	16311
32,49067	16352
32,50133	16384
32,51200	16420
32,52267	16448
32,53333	16470
32,54400	16504
32,55467	16533
32,56533	16558
32,57600	16567
32,58667	16584
32,59733	16603
32,60800	16627
32,61867	16649
32,62933	16661
32,64000	16688
32,65067	16721
32,66133	16749
32,67200	16794
32,68267	16842
32,69333	16898
32,70400	16944
32,71467	16991
32,72533	17034
32,73600	17098
32,74667	17167
32,75733	17244
32,76800	17314
32,77867	17394
32,78933	17483
32,80000	17568
32,81067	17657
32,82133	17749
32,83200	17838
32,84267	17940
32,85333	18045
32,86400	18153
32,87467	18261
32,88533	18374
32,89600	18487
32,90667	18617
32,91733	18744
32,92800	18882
32,93867	19023
32,94933	19181
32,96000	19334
32,97067	19485
32,98133	19632
32,99200	19786
33,00267	19945
33,01333	20093
33,02400	20240
33,03467	20394
33,04533	20546
33,05600	20704
33,06667	20865
33,07733	21041
33,08800	21226
33,09867	21405
33,10933	21590
33,12000	21775
33,13067	21962
33,14133	22130
33,15200	22293
33,16267	22447
33,17333	22594
33,18400	22737
33,19467	22885
33,20533	23038
33,21600	23198
33,22667	23372
33,23733	23548
33,24800	23743
33,25867	23941
33,26933	24142
33,28000	24330
33,29067	24507
33,30133	24677
33,31200	24848
33,32267	25008
33,33333	25175
33,34400	25324
33,35467	25482
33,36533	25626
33,37600	25771
33,38667	25918
33,39733	26067
33,40800	26224
33,41867	26377
33,42933	26531
33,44000	26681
33,45067	26823
33,46133	26968
33,47200	27106
33,48267	27245
33,49333	27388
33,50400	27537
33,51467	27684
33,52533	27845
33,53600	28011
33,54667	28197
33,55733	28389
33,56800	28601
33,57867	28795
33,58933	28970
33,60000	29103
33,61067	29194
33,62133	29257
33,63200	29305
33,64267	29348
33,65333	29397
33,66400	29444
33,67467	29491
33,68533	29508
33,69600	29533
33,70667	29568
33,71733	29599
33,72800	29619
33,73867	29649
33,74933	29689
33,76000	29732
33,77067	29772
33,78133	29808
33,79200	29867
33,80267	29931
33,81333	29986
33,82400	30012
33,83467	30020
33,84533	30022
33,85600	30020
33,86667	30028
33,87733	30047
33,88800	30080
33,89867	30114
33,90933	30154
33,92000	30173
33,93067	30193
33,94133	30220
33,95200	30278
33,96267	30405
33,97333	30600
33,98400	30894
33,99467	31219
34,00533	31484
34,01600	31647
34,02667	31771
34,03733	31920
34,04800	32037
34,05867	32008
34,06933	31777
34,08000	31433
34,09067	31103
34,10133	30897
34,11200	30918
34,12267	31171
34,13333	31542
34,14400	31834
34,15467	31898
34,16533	31779
34,17600	31769
34,18667	32221
34,19733	33334
34,20800	34789
34,21867	35937
34,22933	36232
34,24000	35711
34,25067	34784
34,26133	33880
34,27200	33179
34,28267	32749
34,29333	32729
34,30400	33260
34,31467	34292
34,32533	35302
34,33600	35718
34,34667	35328
34,35733	34423
34,36800	33449
34,37867	32682
34,38933	32208
34,40000	32001
34,41067	31993
34,42133	32106
34,43200	32291
34,44267	32489
34,45333	32694
34,46400	32822
34,47467	32900
34,48533	32923
34,49600	32930
34,50667	32947
34,51733	32984
34,52800	33008
34,53867	32990
34,54933	32933
34,56000	32852
34,57067	32806
34,58133	32858
34,59200	32979
34,60267	33102
34,61333	33169
34,62400	33162
34,63467	33131
34,64533	33115
34,65600	33132
34,66667	33171
34,67733	33227
34,68800	33251
34,69867	33245
34,70933	33210
34,72000	33200
34,73067	33237
34,74133	33305
34,75200	33398
34,76267	33478
34,77333	33553
34,78400	33621
34,79467	33677
34,80533	33736
34,81600	33788
34,82667	33850
34,83733	33950
34,84800	34074
34,85867	34201
34,86933	34313
34,88000	34380
34,89067	34423
34,90133	34475
34,91200	34527
34,92267	34581
34,93333	34659
34,94400	34763
34,95467	34893
34,96533	35132
34,97600	35669
34,98667	37221
34,99733	41242
35,00800	49431
35,01867	63151
35,02933	82558
35,04000	106548
35,05067	130577
35,06133	147048
35,07200	149904
35,08267	139738
35,09333	122819
35,10400	105333
35,11467	90722
35,12533	79689
35,13600	71755
35,14667	66190
35,15733	62389
35,16800	59867
35,17867	58081
35,18933	56509
35,20000	54888
35,21067	53276
35,22133	51815
35,23200	50585
35,24267	49590
35,25333	48790
35,26400	48116
35,27467	47543
35,28533	47049
35,29600	46631
35,30667	46255
35,31733	45939
35,32800	45677
35,33867	45474
35,34933	45359
35,36000	45255
35,37067	45016
35,38133	44563
35,39200	44008
35,40267	43526
35,41333	43267
35,42400	43370
35,43467	44100
35,44533	45754
35,45600	48209
35,46667	50786
35,47733	52563
35,48800	53107
35,49867	52633
35,50933	51582
35,52000	50220
35,53067	48702
35,54133	47285
35,55200	46359
35,56267	46231
35,57333	46797
35,58400	47535
35,59467	47811
35,60533	47396
35,61600	46502
35,62667	45501
35,63733	44621
35,64800	43912
35,65867	43350
35,66933	42920
35,68000	42591
35,69067	42355
35,70133	42187
35,71200	42087
35,72267	42038
35,73333	42014
35,74400	42019
35,75467	42050
35,76533	42110
35,77600	42227
35,78667	42428
35,79733	42784
35,80800	43296
35,81867	43913
35,82933	44480
35,84000	44835
35,85067	44928
35,86133	44841
35,87200	44677
35,88267	44483
35,89333	44233
35,90400	43895
35,91467	43499
35,92533	43103
35,93600	42783
35,94667	42524
35,95733	42328
35,96800	42172
35,97867	42101
35,98933	42098
36,00000	42156
36,01067	42253
36,02133	42351
36,03200	42422
36,04267	42429
36,05333	42371
36,06400	42288
36,07467	42201
36,08533	42141
36,09600	42119
36,10667	42124
36,11733	42173
36,12800	42248
36,13867	42347
36,14933	42462
36,16000	42615
36,17067	42792
36,18133	42978
36,19200	43146
36,20267	43296
36,21333	43421
36,22400	43557
36,23467	43676
36,24533	43745
36,25600	43730
36,26667	43658
36,27733	43600
36,28800	43635
36,29867	43853
36,30933	44259
36,32000	44704
36,33067	44972
36,34133	44955
36,35200	44690
36,36267	44313
36,37333	43939
36,38400	43629
36,39467	43399
36,40533	43215
36,41600	43060
36,42667	42928
36,43733	42821
36,44800	42731
36,45867	42690
36,46933	42668
36,48000	42667
36,49067	42676
36,50133	42696
36,51200	42716
36,52267	42737
36,53333	42751
36,54400	42770
36,55467	42789
36,56533	42804
36,57600	42813
36,58667	42817
36,59733	42818
36,60800	42813
36,61867	42814
36,62933	42817
36,64000	42833
36,65067	42864
36,66133	42910
36,67200	42962
36,68267	43027
36,69333	43081
36,70400	43130
36,71467	43160
36,72533	43180
36,73600	43210
36,74667	43264
36,75733	43357
36,76800	43450
36,77867	43509
36,78933	43526
36,80000	43480
36,81067	43386
36,82133	43266
36,83200	43171
36,84267	43099
36,85333	43050
36,86400	43020
36,87467	43010
36,88533	43006
36,89600	43002
36,90667	43007
36,91733	43000
36,92800	43011
36,93867	43011
36,94933	43007
36,96000	43030
36,97067	43075
36,98133	43166
36,99200	43311
37,00267	43513
37,01333	43757
37,02400	43990
37,03467	44181
37,04533	44269
37,05600	44220
37,06667	44086
37,07733	43880
37,08800	43669
37,09867	43465
37,10933	43292
37,12000	43180
37,13067	43103
37,14133	43055
37,15200	43039
37,16267	43039
37,17333	43064
37,18400	43123
37,19467	43213
37,20533	43323
37,21600	43408
37,22667	43458
37,23733	43463
37,24800	43422
37,25867	43339
37,26933	43258
37,28000	43187
37,29067	43130
37,30133	43082
37,31200	43050
37,32267	43036
37,33333	43021
37,34400	43017
37,35467	43011
37,36533	43004
37,37600	43005
37,38667	43004
37,39733	43008
37,40800	43008
37,41867	43014
37,42933	43024
37,44000	43027
37,45067	43034
37,46133	43043
37,47200	43042
37,48267	43057
37,49333	43073
37,50400	43087
37,51467	43099
37,52533	43105
37,53600	43110
37,54667	43099
37,55733	43106
37,56800	43103
37,57867	43090
37,58933	43104
37,60000	43101
37,61067	43100
37,62133	43112
37,63200	43121
37,64267	43136
37,65333	43150
37,66400	43169
37,67467	43189
37,68533	43200
37,69600	43208
37,70667	43215
37,71733	43228
37,72800	43241
37,73867	43262
37,74933	43277
37,76000	43288
37,77067	43306
37,78133	43327
37,79200	43338
37,80267	43332
37,81333	43324
37,82400	43316
37,83467	43291
37,84533	43275
37,85600	43256
37,86667	43241
37,87733	43228
37,88800	43215
37,89867	43208
37,90933	43209
37,92000	43210
37,93067	43209
37,94133	43203
37,95200	43201
37,96267	43202
37,97333	43212
37,98400	43214
37,99467	43217
38,00533	43211
38,01600	43205
38,02667	43210
38,03733	43203
38,04800	43203
38,05867	43209
38,06933	43209
38,08000	43219
38,09067	43214
38,10133	43219
38,11200	43221
38,12267	43213
38,13333	43220
38,14400	43224
38,15467	43218
38,16533	43225
38,17600	43232
38,18667	43239
38,19733	43243
38,20800	43259
38,21867	43274
38,22933	43296
38,24000	43301
38,25067	43312
38,26133	43315
38,27200	43322
38,28267	43324
38,29333	43318
38,30400	43317
38,31467	43319
38,32533	43317
38,33600	43310
38,34667	43310
38,35733	43300
38,36800	43297
38,37867	43291
38,38933	43293
38,40000	43302
38,41067	43303
38,42133	43301
38,43200	43301
38,44267	43300
38,45333	43305
38,46400	43300
38,47467	43302
38,48533	43312
38,49600	43323
38,50667	43327
38,51733	43328
38,52800	43330
38,53867	43326
38,54933	43335
38,56000	43336
38,57067	43337
38,58133	43332
38,59200	43348
38,60267	43351
38,61333	43344
38,62400	43346
38,63467	43356
38,64533	43363
38,65600	43372
38,66667	43378
38,67733	43397
38,68800	43418
38,69867	43431
38,70933	43446
38,72000	43461
38,73067	43484
38,74133	43521
38,75200	43573
38,76267	43674
38,77333	43843
38,78400	44142
38,79467	44607
38,80533	45333
38,81600	46433
38,82667	48014
38,83733	50206
38,84800	53054
38,85867	56509
38,86933	60409
38,88000	64453
38,89067	68207
38,90133	71181
38,91200	72953
38,92267	73270
38,93333	72086
38,94400	69619
38,95467	66248
38,96533	62436
38,97600	58631
38,98667	55152
38,99733	52229
39,00800	49908
39,01867	48171
39,02933	46919
39,04000	46046
39,05067	45440
39,06133	45026
39,07200	44715
39,08267	44486
39,09333	44302
39,10400	44146
39,11467	44016
39,12533	43888
39,13600	43767
39,14667	43647
39,15733	43509
39,16800	43387
39,17867	43256
39,18933	43126
39,20000	42980
39,21067	42819
39,22133	42661
39,23200	42502
39,24267	42338
39,25333	42162
39,26400	41976
39,27467	41779
39,28533	41576
39,29600	41372
39,30667	41157
39,31733	40937
39,32800	40722
39,33867	40492
39,34933	40263
39,36000	40035
39,37067	39799
39,38133	39570
39,39200	39340
39,40267	39107
39,41333	38891
39,42400	38693
39,43467	38491
39,44533	38270
39,45600	38064
39,46667	37878
39,47733	37686
39,48800	37476
39,49867	37246
39,50933	37015
39,52000	36751
39,53067	36454
39,54133	36132
39,55200	35794
39,56267	35450
39,57333	35109
39,58400	34781
39,59467	34440
39,60533	34044
39,61600	33579
39,62667	33004
39,63733	32319
39,64800	31502
39,65867	30578
39,66933	29564
39,68000	28470
39,69067	27324
39,70133	26147
39,71200	24950
39,72267	23761
39,73333	22534
39,74400	21292
39,75467	20061
39,76533	18867
39,77600	17710
39,78667	16613
39,79733	15566
39,80800	14572
39,81867	13643
39,82933	12775
39,84000	11960
39,85067	11200
39,86133	10504
39,87200	9860
39,88267	9264
39,89333	8710
39,90400	8213
39,91467	7743
39,92533	7313
39,93600	6920
39,94667	6554
39,95733	6215
39,96800	5907
39,97867	5615
39,98933	5354
40,00000	5109
40,01067	4880
40,02133	4667
40,03200	4471
40,04267	4289
40,05333	4107
40,06400	3947
40,07467	3794
40,08533	3643
40,09600	3505
40,10667	3372
40,11733	3246
40,12800	3126
40,13867	3015
40,14933	2914
40,16000	2816
40,17067	2715
40,18133	2623
40,19200	2532
40,20267	2444
40,21333	2359
40,22400	2269
40,23467	2195
40,24533	2123
40,25600	2050
40,26667	1985
40,27733	1913
40,28800	1850
40,29867	1787
40,30933	1720
40,32000	1658
40,33067	1600
40,34133	1557
40,35200	1504
40,36267	1452
40,37333	1408
40,38400	1359
40,39467	1309
40,40533	1266
40,41600	1228
40,42667	1192
40,43733	1152
40,44800	1117
40,45867	1072
40,46933	1027
40,48000	1000
40,49067	956
40,50133	925
40,51200	895
40,52267	873
40,53333	835
40,54400	818
40,55467	788
40,56533	756
40,57600	722
40,58667	700
40,59733	679
40,60800	649
40,61867	626
40,62933	598
40,64000	572
40,65067	548
40,66133	522
40,67200	498
40,68267	475
40,69333	445
40,70400	418
40,71467	397
40,72533	379
40,73600	351
40,74667	319
40,75733	308
40,76800	286
40,77867	256
40,78933	239
40,80000	211
40,81067	204
40,82133	177
40,83200	157
40,84267	137
40,85333	120
40,86400	101
40,87467	85
40,88533	64
40,89600	50
40,90667	27
40,91733	7
40,92800	-11
40,93867	-17
40,94933	-25
40,96000	-43
40,97067	-63
40,98133	-69
40,99200	-74
41,00267	-88
41,01333	-104
41,02400	-116
41,03467	-123
41,04533	-131
41,05600	-143
41,06667	-155
41,07733	-161
41,08800	-168
41,09867	-182
41,10933	-185
41,12000	-188
41,13067	-194
41,14133	-203
41,15200	-215
41,16267	-222
41,17333	-230
41,18400	-242
41,19467	-242
41,20533	-250
41,21600	-260
41,22667	-259
41,23733	-260
41,24800	-268
41,25867	-268
41,26933	-279
41,28000	-281
41,29067	-288
41,30133	-287
41,31200	-293
41,32267	-291
41,33333	-298
41,34400	-304
41,35467	-306
41,36533	-307
41,37600	-306
41,38667	-313
41,39733	-305
41,40800	-306
41,41867	-300
41,42933	-303
41,44000	-298
41,45067	-298
41,46133	-295
41,47200	-294
41,48267	-297
41,49333	-287
41,50400	-278
41,51467	-281
41,52533	-279
41,53600	-277
41,54667	-273
41,55733	-260
41,56800	-250
41,57867	-254
41,58933	-242
41,60000	-226
41,61067	-233
41,62133	-232
41,63200	-215
41,64267	-208
41,65333	-200
41,66400	-202
41,67467	-184
41,68533	-179
41,69600	-172
41,70667	-173
41,71733	-161
41,72800	-147
41,73867	-144
41,74933	-132
41,76000	-132
41,77067	-122
41,78133	-117
41,79200	-107
41,80267	-97
41,81333	-91
41,82400	-81
41,83467	-84
41,84533	-83
41,85600	-74
41,86667	-57
41,87733	-57
41,88800	-53
41,89867	-47
41,90933	-36
41,92000	-28
41,93067	-25
41,94133	-17
41,95200	-16
41,96267	-6
41,97333	-4
41,98400	-2
41,99467	-1
42,00533	13
42,01600	16
42,02667	26
42,03733	28
42,04800	30
42,05867	24
42,06933	30
42,08000	39
42,09067	43
42,10133	46
42,11200	46
42,12267	52
42,13333	56
42,14400	61
42,15467	60
42,16533	62
42,17600	68
42,18667	72
42,19733	81
42,20800	81
42,21867	84
42,22933	91
42,24000	81
42,25067	81
42,26133	80
42,27200	79
42,28267	89
42,29333	87
42,30400	91
42,31467	98
42,32533	97
42,33600	89
42,34667	95
42,35733	102
42,36800	99
42,37867	98
42,38933	101
42,40000	100
42,41067	102
42,42133	98
42,43200	99
42,44267	97
42,45333	93
42,46400	94
42,47467	101
42,48533	96
42,49600	104
42,50667	106
42,51733	106
42,52800	107
42,53867	111
42,54933	104
42,56000	105
42,57067	105
42,58133	109
42,59200	104
42,60267	100
42,61333	101
42,62400	105
42,63467	92
42,64533	90
42,65600	101
42,66667	98
42,67733	101
42,68800	101
42,69867	103
42,70933	91
42,72000	92
42,73067	97
42,74133	99
42,75200	95
42,76267	95
42,77333	98
42,78400	85
42,79467	90
42,80533	97
42,81600	95
42,82667	96
42,83733	92
42,84800	91
42,85867	86
42,86933	92
42,88000	84
42,89067	92
42,90133	87
42,91200	77
42,92267	80
42,93333	78
42,94400	82
42,95467	86
42,96533	89
42,97600	86
42,98667	86
42,99733	89
43,00800	95
43,01867	90
43,02933	93
43,04000	80
43,05067	78
43,06133	82
43,07200	83
43,08267	77
43,09333	73
43,10400	83
43,11467	87
43,12533	83
43,13600	84
43,14667	91
43,15733	92
43,16800	86
43,17867	86
43,18933	80
43,20000	82
43,21067	82
43,22133	82
43,23200	82
43,24267	70
43,25333	76
43,26400	84
43,27467	80
43,28533	79
43,29600	78
43,30667	90
43,31733	81
43,32800	80
43,33867	84
43,34933	81
43,36000	86
43,37067	90
43,38133	93
43,39200	83
43,40267	83
43,41333	87
43,42400	82
43,43467	89
43,44533	80
43,45600	85
43,46667	84
43,47733	87
43,48800	89
43,49867	85
43,50933	86
43,52000	86
43,53067	80
43,54133	77
43,55200	84
43,56267	78
43,57333	86
43,58400	85
43,59467	79
43,60533	82
43,61600	78
43,62667	77
43,63733	81
43,64800	84
43,65867	81
43,66933	76
43,68000	79
43,69067	74
43,70133	75
43,71200	79
43,72267	80
43,73333	79
43,74400	80
43,75467	82
43,76533	80
43,77600	80
43,78667	80
43,79733	85
43,80800	74
43,81867	70
43,82933	69
43,84000	65
43,85067	63
43,86133	73
43,87200	65
43,88267	74
43,89333	72
43,90400	73
43,91467	70
43,92533	73
43,93600	69
43,94667	75
43,95733	71
43,96800	73
43,97867	68
43,98933	65
44,00000	67
44,01067	60
44,02133	70
44,03200	68
44,04267	71
44,05333	69
44,06400	74
44,07467	66
44,08533	69
44,09600	66
44,10667	58
44,11733	64
44,12800	67
44,13867	70
44,14933	74
44,16000	64
44,17067	59
44,18133	60
44,19200	67
44,20267	57
44,21333	67
44,22400	72
44,23467	68
44,24533	76
44,25600	73
44,26667	62
44,27733	66
44,28800	64
44,29867	68
44,30933	63
44,32000	62
44,33067	60
44,34133	59
44,35200	60
44,36267	59
44,37333	67
44,38400	70
44,39467	66
44,40533	64
44,41600	66
44,42667	63
44,43733	65
44,44800	74
44,45867	61
44,46933	65
44,48000	59
44,49067	63
44,50133	58
44,51200	60
44,52267	59
44,53333	56
44,54400	60
44,55467	65
44,56533	62
44,57600	70
44,58667	68
44,59733	61
44,60800	59
44,61867	53
44,62933	50
44,64000	56
44,65067	55
44,66133	58
44,67200	61
44,68267	64
44,69333	54
44,70400	57
44,71467	57
44,72533	62
44,73600	66
44,74667	59
44,75733	55
44,76800	65
44,77867	63
44,78933	59
44,80000	62
44,81067	58
44,82133	62
44,83200	59
44,84267	63
44,85333	65
44,86400	60
44,87467	58
44,88533	59
44,89600	60
44,90667	65
44,91733	65
44,92800	58
44,93867	56
44,94933	53
44,96000	52
44,97067	50
44,98133	55
44,99200	54
45,00267	54
45,01333	58
45,02400	55
45,03467	62
45,04533	62
45,05600	46
45,06667	53
45,07733	48
45,08800	55
45,09867	62
45,10933	63
45,12000	59
45,13067	61
45,14133	54
45,15200	55
45,16267	48
45,17333	49
45,18400	48
45,19467	46
45,20533	43
45,21600	43
45,22667	51
45,23733	47
45,24800	42
45,25867	46
45,26933	51
45,28000	49
45,29067	52
45,30133	56
45,31200	51
45,32267	50
45,33333	46
45,34400	41
45,35467	45
45,36533	49
45,37600	47
45,38667	59
45,39733	59
45,40800	60
45,41867	52
45,42933	47
45,44000	45
45,45067	42
45,46133	49
45,47200	54
45,48267	51
45,49333	51
45,50400	53
45,51467	51
45,52533	58
45,53600	61
45,54667	55
45,55733	45
45,56800	53
45,57867	56
45,58933	50
45,60000	52
45,61067	44
45,62133	46
45,63200	45
45,64267	43
45,65333	43
45,66400	46
45,67467	40
45,68533	44
45,69600	53
45,70667	50
45,71733	46
45,72800	44
45,73867	39
45,74933	45
45,76000	41
45,77067	38
45,78133	43
45,79200	39
45,80267	44
45,81333	42
45,82400	47
45,83467	47
45,84533	51
45,85600	49
45,86667	51
45,87733	46
45,88800	41
45,89867	38
45,90933	41
45,92000	44
45,93067	34
45,94133	43
45,95200	39
45,96267	34
45,97333	32
45,98400	47
45,99467	48
46,00533	47
46,01600	43
46,02667	44
46,03733	48
46,04800	46
46,05867	44
46,06933	40
46,08000	45
46,09067	44
46,10133	43
46,11200	46
46,12267	51
46,13333	49
46,14400	55
46,15467	55
46,16533	48
46,17600	42
46,18667	32
46,19733	38
46,20800	47
46,21867	47
46,22933	49
46,24000	53
46,25067	46
46,26133	45
46,27200	36
46,28267	36
46,29333	37
46,30400	37
46,31467	39
46,32533	43
46,33600	41
46,34667	49
46,35733	42
46,36800	43
46,37867	43
46,38933	43
46,40000	44
46,41067	54
46,42133	51
46,43200	44
46,44267	47
46,45333	54
46,46400	54
46,47467	50
46,48533	51
46,49600	51
46,50667	59
46,51733	56
46,52800	59
46,53867	55
46,54933	47
46,56000	44
46,57067	43
46,58133	38
46,59200	48
46,60267	56
46,61333	47
46,62400	48
46,63467	49
46,64533	37
46,65600	43
46,66667	40
46,67733	36
46,68800	40
46,69867	43
46,70933	41
46,72000	38
46,73067	41
46,74133	40
46,75200	41
46,76267	39
46,77333	34
46,78400	44
46,79467	44
46,80533	45
46,81600	45
46,82667	44
46,83733	37
46,84800	35
46,85867	34
46,86933	34
46,88000	40
46,89067	35
46,90133	39
46,91200	37
46,92267	38
46,93333	43
46,94400	38
46,95467	39
46,96533	42
46,97600	36
46,98667	38
46,99733	40
47,00800	34
47,01867	32
47,02933	40
47,04000	43
47,05067	40
47,06133	37
47,07200	39
47,08267	38
47,09333	39
47,10400	38
47,11467	48
47,12533	42
47,13600	40
47,14667	33
47,15733	37
47,16800	44
47,17867	46
47,18933	39
47,20000	40
47,21067	33
47,22133	31
47,23200	26
47,24267	36
47,25333	39
47,26400	39
47,27467	48
47,28533	39
47,29600	38
47,30667	35
47,31733	41
47,32800	37
47,33867	35
47,34933	33
47,36000	32
47,37067	38
47,38133	34
47,39200	33
47,40267	28
47,41333	35
47,42400	39
47,43467	37
47,44533	36
47,45600	36
47,46667	39
47,47733	32
47,48800	29
47,49867	31
47,50933	36
47,52000	32
47,53067	26
47,54133	23
47,55200	33
47,56267	36
47,57333	35
47,58400	35
47,59467	30
47,60533	32
47,61600	33
47,62667	29
47,63733	31
47,64800	34
47,65867	34
47,66933	42
47,68000	38
47,69067	40
47,70133	34
47,71200	32
47,72267	24
47,73333	30
47,74400	33
47,75467	27
47,76533	26
47,77600	31
47,78667	28
47,79733	20
47,80800	24
47,81867	24
47,82933	20
47,84000	24
47,85067	24
47,86133	24
47,87200	22
47,88267	31
47,89333	32
47,90400	35
47,91467	27
47,92533	20
47,93600	23
47,94667	23
47,95733	25
47,96800	25
47,97867	27
47,98933	22
48,00000	22
48,01067	24
48,02133	25
48,03200	26
48,04267	21
48,05333	25
48,06400	29
48,07467	24
48,08533	25
48,09600	24
48,10667	27
48,11733	22
48,12800	21
48,13867	20
48,14933	26
48,16000	28
48,17067	28
48,18133	29
48,19200	28
48,20267	23
48,21333	29
48,22400	32
48,23467	23
48,24533	27
48,25600	31
48,26667	32
48,27733	31
48,28800	30
48,29867	30
48,30933	28
48,32000	31
48,33067	30
48,34133	36
48,35200	27
48,36267	30
48,37333	31
48,38400	24
48,39467	23
48,40533	30
48,41600	29
48,42667	29
48,43733	34
48,44800	31
48,45867	22
48,46933	21
48,48000	19
48,49067	25
48,50133	23
48,51200	21
48,52267	21
48,53333	24
48,54400	28
48,55467	27
48,56533	25
48,57600	20
48,58667	19
48,59733	22
48,60800	21
48,61867	23
48,62933	23
48,64000	26
48,65067	20
48,66133	21
48,67200	26
48,68267	20
48,69333	14
48,70400	12
48,71467	19
48,72533	24
48,73600	16
48,74667	19
48,75733	26
48,76800	27
48,77867	24
48,78933	20
48,80000	19
48,81067	23
48,82133	22
48,83200	11
48,84267	9
48,85333	14
48,86400	20
48,87467	20
48,88533	21
48,89600	13
48,90667	14
48,91733	17
48,92800	16
48,93867	20
48,94933	17
48,96000	16
48,97067	13
48,98133	17
48,99200	13
49,00267	10
49,01333	10
49,02400	7
49,03467	7
49,04533	10
49,05600	8
49,06667	12
49,07733	13
49,08800	9
49,09867	7
49,10933	5
49,12000	3
49,13067	6
49,14133	11
49,15200	8
49,16267	11
49,17333	10
49,18400	7
49,19467	6
49,20533	14
49,21600	17
49,22667	7
49,23733	12
49,24800	9
49,25867	8
49,26933	8
49,28000	2
49,29067	2
49,30133	10
49,31200	8
49,32267	2
49,33333	5
49,34400	-1
49,35467	-3
49,36533	5
49,37600	7
49,38667	9
49,39733	7
49,40800	7
49,41867	6
49,42933	4
49,44000	3
49,45067	1
49,46133	-3
49,47200	6
49,48267	2
49,49333	2
49,50400	8
49,51467	4
49,52533	2
49,53600	2
49,54667	2
49,55733	-2
49,56800	1
49,57867	6
49,58933	9
49,60000	12
49,61067	12
49,62133	13
49,63200	8
49,64267	8
49,65333	6
49,66400	9
49,67467	2
49,68533	11
49,69600	8
49,70667	7
49,71733	6
49,72800	-2
49,73867	1
49,74933	-1
49,76000	1
49,77067	5
49,78133	4
49,79200	7
49,80267	3
49,81333	5
49,82400	6
49,83467	5
49,84533	0
49,85600	-3
49,86667	-4
49,87733	-5
49,88800	1
49,89867	6
49,90933	11
49,92000	10
49,93067	3
49,94133	-2
49,95200	-5
49,96267	-2
49,97333	-1
49,98400	-2
49,99467	-4
50,00533	-5


