[Header]
Application Name	LabSolutions
Version	5.73
Data File Name	C:\Users\Public\DADOS\Ricardo borges\RMBorges\26.02.25\CHA VERDE 1.lcd
Output Date	27/02/2025
Output Time	08:06:52

[File Information]
Type	Data File
Generated	27/02/2025 07:16:24
Generated by	System Administrator
Modified	27/02/2025 08:06:52
Modified by	System Administrator

[Sample Information]
Operator Name	System Administrator
Acquired	27/02/2025 07:16:49
Sample Type	0:Unknown
Level	0
Sample Name	CHA VERDE 1
Sample ID	CHA VERDE 1
ISTD Amount1	1
ISTD Amount2	1
ISTD Amount3	1
ISTD Amount4	1
ISTD Amount5	1
ISTD Amount6	1
ISTD Amount7	1
ISTD Amount8	1
ISTD Amount9	1
ISTD Amount10	1
ISTD Amount11	1
ISTD Amount12	1
ISTD Amount13	1
ISTD Amount14	1
ISTD Amount15	1
ISTD Amount16	1
ISTD Amount17	1
ISTD Amount18	1
ISTD Amount19	1
ISTD Amount20	1
ISTD Amount21	1
ISTD Amount22	1
ISTD Amount23	1
ISTD Amount24	1
ISTD Amount25	1
ISTD Amount26	1
ISTD Amount27	1
ISTD Amount28	1
ISTD Amount29	1
ISTD Amount30	1
ISTD Amount31	1
ISTD Amount32	1
Sample Amount	1
Dilution Factor	1
Vial#	28
Injection Volume	10

[Original Files]
Data File	C:\Users\Public\DADOS\Ricardo borges\RMBorges\26.02.25\CHA VERDE 1.lcd
Method File	C:\Users\Public\MÉTODOS\MÉTODOS HPLC AUTOMÁTICO\RICARDO BORGES\RMBorges\sciffee\experimental 1 - pool.lcm
Batch File	C:\Users\Public\DADOS\Ricardo borges\RMBorges\26.02.25\BATCH_RM_MIX POOL_26.02.2025.lcb
Report Format File	C:\LabSolutions\System\Default.lsr

[File Description]


[Configuration]
Instrument Name	HPLC analítico (automático)
Instrument #	1
Line #	1
# of Detectors	1
Detector ID	PDA
Detector Name	PDA
# of Channels	1

[Peak Table(PDA-Ch1)]
# of Peaks	86
Peak#	R.Time	I.Time	F.Time	Area	Height	A/H	Conc.	Mark	ID#	Name	k'	Plate #	Plate Ht.	Tailing	Resolution	Sep.Factor	Area Ratio	Height Ratio	Conc. %	Norm Conc.
1	1,542	1,280	1,696	929132	75471	12,311	0,000	   			0,000	203	737,766	0,000	0,000	0,000	0	0	0,000	0,000
2	1,754	1,696	1,995	577105	69776	8,271	0,000	 V 			0,138	1321	113,550	0,000	0,681	0,000	0	0	0,000	0,000
3	2,089	1,995	2,219	604753	81836	7,390	0,000	 V 			0,355	1483	101,123	0,000	1,631	2,571	0	0	0,000	0,000
4	2,306	2,219	2,549	501536	43014	11,660	0,000	 V 			0,496	753	199,108	0,000	0,787	1,398	0	0	0,000	0,000
5	2,642	2,549	2,720	150324	16268	9,241	0,000	 V 			0,714	129	1167,216	0,000	0,530	1,439	0	0	0,000	0,000
6	2,787	2,720	2,976	187828	15998	11,741	0,000	 V 			0,808	141	1062,611	0,000	0,155	1,132	0	0	0,000	0,000
7	3,036	2,976	3,104	61065	8108	7,532	0,000	 V 			0,969	22	6959,660	0,000	0,140	1,199	0	0	0,000	0,000
8	3,283	3,104	3,584	3997474	482643	8,282	0,000	 V 			1,130	3363	44,609	1,297	0,174	1,165	0	0	0,000	0,000
9	3,695	3,584	3,915	190561	11652	16,354	0,000	 V 			1,397	265	566,440	0,000	0,727	1,237	0	0	0,000	0,000
10	4,355	3,915	5,003	1050565	64108	16,387	0,000	SV 			1,825	2862	52,412	0,000	1,070	1,306	0	0	0,000	0,000
11	4,876	4,768	4,981	3608	507	7,118	0,000	T  			2,163	9244	16,227	0,987	1,972	1,185	0	0	0,000	0,000
12	5,274	5,003	5,451	122018	5265	23,174	0,000	 V 			2,421	319	470,574	0,000	0,575	1,119	0	0	0,000	0,000
13	5,496	5,451	5,632	38351	3721	10,307	0,000	 V 			2,565	53	2835,336	0,000	0,106	1,059	0	0	0,000	0,000
14	6,060	5,632	6,123	154488	7660	20,168	0,000	 V 			2,931	113	1324,272	0,000	0,213	1,143	0	0	0,000	0,000
15	6,417	6,123	6,635	631568	44966	14,045	0,000	 V 			3,162	5447	27,536	0,000	0,272	1,079	0	0	0,000	0,000
16	6,829	6,635	7,584	2252487	126621	17,789	0,000	 V 			3,430	4820	31,119	0,000	1,113	1,085	0	0	0,000	0,000
17	7,766	7,584	7,947	181792	10933	16,628	0,000	 V 			4,037	2701	55,543	0,000	1,890	1,177	0	0	0,000	0,000
18	8,150	7,947	8,309	436135	32825	13,287	0,000	 V 			4,287	7020	21,369	0,000	0,779	1,062	0	0	0,000	0,000
19	8,507	8,309	8,800	3752319	319772	11,734	0,000	 V 			4,518	11673	12,850	0,000	1,014	1,054	0	0	0,000	0,000
20	8,922	8,800	9,301	500266	28938	17,288	0,000	 V 			4,788	3880	38,664	0,000	0,935	1,060	0	0	0,000	0,000
21	9,532	9,301	9,824	1518547	138773	10,943	0,000	 V 			5,183	18804	7,977	0,000	1,432	1,083	0	0	0,000	0,000
22	10,012	9,824	10,187	410381	28766	14,266	0,000	 V 			5,495	9390	15,974	0,000	1,389	1,060	0	0	0,000	0,000
23	10,303	10,187	10,795	410909	17390	23,629	0,000	 V 			5,684	5228	28,692	0,000	0,593	1,034	0	0	0,000	0,000
24	11,132	10,795	11,445	1806086	143170	12,615	0,000	 V 			6,221	19619	7,646	0,000	1,867	1,095	0	0	0,000	0,000
25	11,656	11,445	11,840	334613	19461	17,194	0,000	 V 			6,561	6446	23,270	0,000	1,166	1,055	0	0	0,000	0,000
26	12,086	11,840	12,576	15161631	1279650	11,848	0,000	 V 			6,840	22784	6,583	1,381	0,955	1,043	0	0	0,000	0,000
27	12,760	12,576	12,939	913910	81892	11,160	0,000	 V 			7,277	27834	5,389	0,000	2,152	1,064	0	0	0,000	0,000
28	13,091	12,939	15,776	16225709	804096	20,179	0,000	SV 			7,492	11887	12,619	3,877	0,841	1,029	0	0	0,000	0,000
29	13,827	13,717	13,995	176046	22366	7,871	0,000	T  			7,970	57503	2,609	1,200	2,072	1,064	0	0	0,000	0,000
30	14,371	14,219	14,528	103922	10668	9,742	0,000	T  			8,322	44114	3,400	0,000	2,155	1,044	0	0	0,000	0,000
31	14,577	14,528	14,763	27052	3356	8,061	0,000	TV 			8,456	13317	11,264	0,000	0,530	1,016	0	0	0,000	0,000
32	15,130	14,784	15,317	339245	30631	11,075	0,000	T  			8,815	42727	3,511	0,000	1,386	1,042	0	0	0,000	0,000
33	15,420	15,317	15,765	92707	6617	14,010	0,000	TV 			9,003	20024	7,491	0,000	0,797	1,021	0	0	0,000	0,000
34	16,068	15,776	16,800	3964836	343932	11,528	0,000	SV 			9,423	48876	3,069	1,288	1,783	1,047	0	0	0,000	0,000
35	16,722	16,608	16,800	4115	673	6,117	0,000	T  			9,848	152923	0,981	0,847	2,835	1,045	0	0	0,000	0,000
36	16,991	16,800	17,205	419828	32193	13,041	0,000	 V 			10,022	38397	3,907	0,000	1,036	1,018	0	0	0,000	0,000
37	17,395	17,205	17,749	395758	19004	20,825	0,000	 V 			10,284	16488	9,097	0,000	0,911	1,026	0	0	0,000	0,000
38	17,913	17,749	18,155	252482	15688	16,094	0,000	 V 			10,620	25243	5,942	0,000	1,043	1,033	0	0	0,000	0,000
39	18,309	18,155	18,453	143179	8860	16,161	0,000	 V 			10,877	4395	34,130	0,000	0,508	1,024	0	0	0,000	0,000
40	18,805	18,453	19,061	1787630	123617	14,461	0,000	 V 			11,198	41154	3,645	0,000	0,673	1,030	0	0	0,000	0,000
41	19,146	19,061	19,307	165821	12414	13,357	0,000	 V 			11,420	4237	35,405	0,000	0,441	1,020	0	0	0,000	0,000
42	19,369	19,307	19,531	128964	9989	12,911	0,000	 V 			11,564	172	871,776	0,000	0,063	1,013	0	0	0,000	0,000
43	19,668	19,531	19,765	161139	13343	12,077	0,000	 V 			11,759	11175	13,423	0,000	0,090	1,017	0	0	0,000	0,000
44	19,868	19,765	20,203	228452	13288	17,192	0,000	 V 			11,888	12134	12,362	0,000	0,273	1,011	0	0	0,000	0,000
45	20,406	20,203	20,544	284873	21989	12,955	0,000	 V 			12,237	42884	3,498	0,000	0,965	1,029	0	0	0,000	0,000
46	20,675	20,544	21,109	353930	19237	18,398	0,000	 V 			12,412	30374	4,938	0,000	0,618	1,014	0	0	0,000	0,000
47	21,363	21,109	21,429	551129	54194	10,170	0,000	 V 			12,858	22118	6,782	0,000	1,313	1,036	0	0	0,000	0,000
48	21,606	21,429	21,920	2841186	238745	11,901	0,000	 V 			13,016	71676	2,093	0,000	0,541	1,012	0	0	0,000	0,000
49	22,121	21,920	22,283	257441	18500	13,916	0,000	 V 			13,350	46095	3,254	0,000	1,400	1,026	0	0	0,000	0,000
50	22,359	22,283	22,539	117560	9019	13,035	0,000	 V 			13,504	3255	46,087	0,000	0,240	1,012	0	0	0,000	0,000
51	22,707	22,539	22,933	162635	9661	16,834	0,000	 V 			13,730	27878	5,381	0,000	0,330	1,017	0	0	0,000	0,000
52	23,119	22,933	23,200	135824	11534	11,776	0,000	 V 			13,997	15769	9,512	0,000	0,644	1,019	0	0	0,000	0,000
53	23,393	23,200	23,499	285949	20071	14,247	0,000	 V 			14,175	17938	8,362	0,000	0,382	1,013	0	0	0,000	0,000
54	23,592	23,499	23,851	263453	19771	13,325	0,000	 V 			14,304	21760	6,893	0,000	0,297	1,009	0	0	0,000	0,000
55	24,108	23,851	24,576	1358309	98723	13,759	0,000	 V 			14,638	72271	2,076	0,000	1,033	1,023	0	0	0,000	0,000
56	24,695	24,576	24,821	37223	2756	13,505	0,000	 V 			15,020	6868	21,839	0,000	0,758	1,026	0	0	0,000	0,000
57	24,927	24,821	25,003	26655	2590	10,292	0,000	 V 			15,170	4898	30,622	0,000	0,177	1,010	0	0	0,000	0,000
58	25,178	25,003	25,397	79701	5086	15,670	0,000	 V 			15,333	46717	3,211	0,000	0,265	1,011	0	0	0,000	0,000
59	25,528	25,397	25,643	33453	2620	12,768	0,000	 V 			15,560	17782	8,435	0,000	0,569	1,015	0	0	0,000	0,000
60	25,781	25,643	25,920	35246	2295	15,359	0,000	 V 			15,724	3892	38,540	0,000	0,209	1,011	0	0	0,000	0,000
61	26,148	25,920	26,421	56605	2440	23,194	0,000	 V 			15,962	11588	12,944	0,000	0,280	1,015	0	0	0,000	0,000
62	26,706	26,421	26,827	42173	2144	19,666	0,000	 V 			16,324	11627	12,901	0,000	0,569	1,023	0	0	0,000	0,000
63	26,906	26,827	27,051	21896	1943	11,269	0,000	 V 			16,454	10812	13,874	0,000	0,198	1,008	0	0	0,000	0,000
64	27,286	27,051	27,445	22423	1139	19,682	0,000	 V 			16,700	243	616,712	0,000	0,095	1,015	0	0	0,000	0,000
65	27,621	27,445	27,787	38597	3472	11,115	0,000	 V 			16,917	129036	1,162	0,000	0,092	1,013	0	0	0,000	0,000
66	27,868	27,787	28,021	10358	991	10,455	0,000	 V 			17,077	20942	7,163	0,000	0,458	1,009	0	0	0,000	0,000
67	28,171	28,021	28,256	5915	483	12,239	0,000	 V 			17,274	16678	8,994	0,000	0,369	1,012	0	0	0,000	0,000
68	28,974	28,256	29,056	85787	3009	28,514	0,000	 V 			17,795	3042	49,302	0,000	0,541	1,030	0	0	0,000	0,000
69	29,308	29,056	29,707	380854	26661	14,285	0,000	 V 			18,012	99798	1,503	0,000	0,270	1,012	0	0	0,000	0,000
70	30,617	29,707	30,933	304564	12823	23,751	0,000	 V 			18,861	46011	3,260	0,000	2,778	1,047	0	0	0,000	0,000
71	31,071	30,933	31,253	22226	1499	14,824	0,000	 V 			19,155	49722	3,017	0,000	0,805	1,016	0	0	0,000	0,000
72	31,450	31,253	31,637	23191	1529	15,169	0,000	 V 			19,401	73526	2,040	0,000	0,742	1,013	0	0	0,000	0,000
73	31,835	31,637	32,149	27201	2275	11,955	0,000	 V 			19,651	156088	0,961	0,000	0,981	1,013	0	0	0,000	0,000
74	32,485	32,299	32,576	2246	235	9,544	0,000	   			20,073	321965	0,466	0,765	2,357	1,021	0	0	0,000	0,000
75	33,970	32,843	34,048	145248	6647	21,852	0,000	   			21,036	212112	0,707	0,000	5,668	1,048	0	0	0,000	0,000
76	35,061	34,048	35,403	1257199	117261	10,721	0,000	 V 			21,744	663678	0,226	0,000	4,672	1,034	0	0	0,000	0,000
77	35,480	35,403	35,552	156977	22043	7,121	0,000	 V 			22,015	190373	0,788	0,000	1,684	1,012	0	0	0,000	0,000
78	35,585	35,552	35,733	133451	16101	8,288	0,000	 V 			22,084	45112	3,325	0,000	0,212	1,003	0	0	0,000	0,000
79	35,842	35,733	35,979	147398	11713	12,584	0,000	 V 			22,250	39945	3,755	0,000	0,370	1,008	0	0	0,000	0,000
80	36,031	35,979	36,085	50996	8144	6,262	0,000	 V 			22,373	1709	87,764	0,000	0,090	1,006	0	0	0,000	0,000
81	36,328	36,085	36,512	189240	8915	21,227	0,000	 V 			22,565	11462	13,087	0,000	0,122	1,009	0	0	0,000	0,000
82	36,777	36,512	36,928	110137	4566	24,119	0,000	 V 			22,857	0	0,000	0,000	0,000	1,013	0	0	0,000	0,000
83	37,040	36,928	37,152	37896	3611	10,495	0,000	 V 			23,027	107977	1,389	0,000	0,000	1,007	0	0	0,000	0,000
84	37,224	37,152	37,397	14170	1621	8,740	0,000	 V 			23,147	5905	25,401	0,000	0,154	1,005	0	0	0,000	0,000
85	37,926	37,813	38,091	3091	478	6,464	0,000	   			23,602	644497	0,233	1,070	0,661	1,020	0	0	0,000	0,000
86	38,915	38,667	39,947	996591	36658	27,186	0,000	   			24,244	344379	0,436	2,954	4,354	1,027	0	0	0,000	0,000

[Compound Results(PDA)]
# of IDs	0

[PDA Multi Chromatogram(Ch1)]
# of Points	      4689
Interval(msec)	640
Start Time(min)	0
End Time(min)	50,0053
Intensity Units	mAU
Intensity Multiplier	1
Type	MultiChrom
Wavelength(nm)	254
Bandwidth(nm)	4
R.Time (min)	Intensity
0,00000	0
0,01067	0
0,02133	0
0,03200	0
0,04267	0
0,05333	0
0,06400	0
0,07467	0
0,08533	0
0,09600	0
0,10667	-1
0,11733	-3
0,12800	-4
0,13867	0
0,14933	-2
0,16000	-3
0,17067	-11
0,18133	-8
0,19200	-3
0,20267	-2
0,21333	-7
0,22400	-7
0,23467	-11
0,24533	-11
0,25600	-15
0,26667	-15
0,27733	-14
0,28800	-9
0,29867	-15
0,30933	-12
0,32000	-10
0,33067	-12
0,34133	-7
0,35200	-15
0,36267	-18
0,37333	-8
0,38400	-15
0,39467	-17
0,40533	-14
0,41600	-11
0,42667	-9
0,43733	-16
0,44800	-10
0,45867	-2
0,46933	-9
0,48000	-10
0,49067	-13
0,50133	-12
0,51200	-13
0,52267	-6
0,53333	-9
0,54400	-11
0,55467	-6
0,56533	-16
0,57600	-11
0,58667	-8
0,59733	-13
0,60800	-16
0,61867	-14
0,62933	-11
0,64000	-13
0,65067	-18
0,66133	-9
0,67200	-5
0,68267	-1
0,69333	-7
0,70400	-5
0,71467	-5
0,72533	-6
0,73600	-7
0,74667	-0
0,75733	-7
0,76800	-11
0,77867	-8
0,78933	-11
0,80000	-12
0,81067	-13
0,82133	-16
0,83200	-8
0,84267	-18
0,85333	-12
0,86400	-13
0,87467	-13
0,88533	-10
0,89600	-13
0,90667	-17
0,91733	-3
0,92800	-6
0,93867	-12
0,94933	-7
0,96000	-14
0,97067	-14
0,98133	-10
0,99200	-5
1,00267	-7
1,01333	-3
1,02400	-7
1,03467	-12
1,04533	-10
1,05600	-12
1,06667	-8
1,07733	-6
1,08800	-1
1,09867	0
1,10933	-3
1,12000	-5
1,13067	5
1,14133	11
1,15200	36
1,16267	50
1,17333	52
1,18400	49
1,19467	49
1,20533	45
1,21600	42
1,22667	52
1,23733	48
1,24800	44
1,25867	41
1,26933	39
1,28000	44
1,29067	82
1,30133	175
1,31200	334
1,32267	540
1,33333	776
1,34400	1028
1,35467	1319
1,36533	1690
1,37600	2320
1,38667	3750
1,39733	7017
1,40800	12903
1,41867	20575
1,42933	28177
1,44000	34494
1,45067	39726
1,46133	44913
1,47200	50620
1,48267	56612
1,49333	62226
1,50400	67125
1,51467	71106
1,52533	74015
1,53600	75586
1,54667	75620
1,55733	74073
1,56800	71138
1,57867	67210
1,58933	62804
1,60000	58513
1,61067	54813
1,62133	51879
1,63200	49393
1,64267	46731
1,65333	43539
1,66400	40090
1,67467	36860
1,68533	34245
1,69600	32726
1,70667	33254
1,71733	37377
1,72800	46815
1,73867	60296
1,74933	70011
1,76000	69790
1,77067	62058
1,78133	52421
1,79200	44560
1,80267	39300
1,81333	35786
1,82400	32938
1,83467	30213
1,84533	27647
1,85600	25547
1,86667	24153
1,87733	23403
1,88800	22916
1,89867	22303
1,90933	21328
1,92000	20042
1,93067	18596
1,94133	17166
1,95200	15887
1,96267	14813
1,97333	13996
1,98400	13448
1,99467	13267
2,00533	13779
2,01600	15844
2,02667	20959
2,03733	30410
2,04800	44087
2,05867	59416
2,06933	72583
2,08000	80513
2,09067	82206
2,10133	78624
2,11200	71649
2,12267	63219
2,13333	54746
2,14400	47071
2,15467	40627
2,16533	35518
2,17600	31750
2,18667	29175
2,19733	27601
2,20800	26737
2,21867	26331
2,22933	26333
2,24000	26916
2,25067	28475
2,26133	31207
2,27200	34944
2,28267	38897
2,29333	42037
2,30400	43471
2,31467	42894
2,32533	40572
2,33600	37275
2,34667	33766
2,35733	30679
2,36800	28284
2,37867	26564
2,38933	25333
2,40000	24325
2,41067	23357
2,42133	22370
2,43200	21344
2,44267	20304
2,45333	19258
2,46400	18203
2,47467	17133
2,48533	16069
2,49600	15034
2,50667	14076
2,51733	13228
2,52800	12528
2,53867	12059
2,54933	11869
2,56000	11995
2,57067	12461
2,58133	13221
2,59200	14160
2,60267	15115
2,61333	15938
2,62400	16523
2,63467	16819
2,64533	16861
2,65600	16699
2,66667	16438
2,67733	16124
2,68800	15817
2,69867	15550
2,70933	15347
2,72000	15252
2,73067	15291
2,74133	15464
2,75200	15764
2,76267	16138
2,77333	16461
2,78400	16649
2,79467	16608
2,80533	16304
2,81600	15771
2,82667	15075
2,83733	14326
2,84800	13571
2,85867	12885
2,86933	12251
2,88000	11678
2,89067	11138
2,90133	10622
2,91200	10124
2,92267	9660
2,93333	9248
2,94400	8925
2,95467	8682
2,96533	8545
2,97600	8523
2,98667	8572
2,99733	8655
3,00800	8749
3,01867	8826
3,02933	8854
3,04000	8860
3,05067	8814
3,06133	8739
3,07200	8672
3,08267	8607
3,09333	8555
3,10400	8554
3,11467	8663
3,12533	9012
3,13600	9880
3,14667	11792
3,15733	15801
3,16800	23518
3,17867	37314
3,18933	59981
3,20000	94213
3,21067	141672
3,22133	201306
3,23200	269452
3,24267	338965
3,25333	401906
3,26400	450025
3,27467	477911
3,28533	483495
3,29600	468116
3,30667	435995
3,31733	392344
3,32800	343013
3,33867	292363
3,34933	244044
3,36000	200201
3,37067	162024
3,38133	129804
3,39200	103244
3,40267	81903
3,41333	65003
3,42400	51889
3,43467	41804
3,44533	34154
3,45600	28384
3,46667	24057
3,47733	20817
3,48800	18370
3,49867	16453
3,50933	14881
3,52000	13575
3,53067	12542
3,54133	11805
3,55200	11306
3,56267	10987
3,57333	10786
3,58400	10701
3,59467	10702
3,60533	10809
3,61600	10998
3,62667	11268
3,63733	11569
3,64800	11879
3,65867	12180
3,66933	12421
3,68000	12586
3,69067	12670
3,70133	12662
3,71200	12560
3,72267	12355
3,73333	12092
3,74400	11781
3,75467	11448
3,76533	11108
3,77600	10769
3,78667	10447
3,79733	10151
3,80800	9860
3,81867	9586
3,82933	9338
3,84000	9108
3,85067	8909
3,86133	8724
3,87200	8578
3,88267	8452
3,89333	8371
3,90400	8309
3,91467	8283
3,92533	8289
3,93600	8318
3,94667	8367
3,95733	8448
3,96800	8561
3,97867	8704
3,98933	8884
4,00000	9096
4,01067	9340
4,02133	9621
4,03200	9932
4,04267	10273
4,05333	10632
4,06400	11004
4,07467	11385
4,08533	11766
4,09600	12154
4,10667	12520
4,11733	12886
4,12800	13224
4,13867	13556
4,14933	13870
4,16000	14182
4,17067	14520
4,18133	14907
4,19200	15387
4,20267	16068
4,21333	17033
4,22400	18441
4,23467	20408
4,24533	23084
4,25600	26550
4,26667	30831
4,27733	35856
4,28800	41394
4,29867	47134
4,30933	52690
4,32000	57630
4,33067	61555
4,34133	64198
4,35200	65392
4,36267	65078
4,37333	63408
4,38400	60559
4,39467	56823
4,40533	52474
4,41600	47803
4,42667	43053
4,43733	38450
4,44800	34104
4,45867	30140
4,46933	26599
4,48000	23483
4,49067	20783
4,50133	18467
4,51200	16495
4,52267	14809
4,53333	13390
4,54400	12176
4,55467	11147
4,56533	10281
4,57600	9535
4,58667	8905
4,59733	8370
4,60800	7898
4,61867	7506
4,62933	7171
4,64000	6865
4,65067	6594
4,66133	6361
4,67200	6151
4,68267	5963
4,69333	5811
4,70400	5682
4,71467	5575
4,72533	5487
4,73600	5434
4,74667	5404
4,75733	5403
4,76800	5418
4,77867	5470
4,78933	5537
4,80000	5628
4,81067	5727
4,82133	5818
4,83200	5906
4,84267	5989
4,85333	6052
4,86400	6091
4,87467	6110
4,88533	6099
4,89600	6078
4,90667	6033
4,91733	5993
4,92800	5949
4,93867	5901
4,94933	5857
4,96000	5821
4,97067	5801
4,98133	5783
4,99200	5775
5,00267	5772
5,01333	5777
5,02400	5777
5,03467	5793
5,04533	5801
5,05600	5813
5,06667	5827
5,07733	5843
5,08800	5872
5,09867	5909
5,10933	5947
5,12000	5999
5,13067	6048
5,14133	6110
5,15200	6183
5,16267	6262
5,17333	6342
5,18400	6426
5,19467	6512
5,20533	6586
5,21600	6666
5,22667	6741
5,23733	6809
5,24800	6869
5,25867	6900
5,26933	6919
5,28000	6918
5,29067	6890
5,30133	6840
5,31200	6761
5,32267	6644
5,33333	6510
5,34400	6357
5,35467	6203
5,36533	6037
5,37600	5886
5,38667	5742
5,39733	5625
5,40800	5525
5,41867	5461
5,42933	5419
5,44000	5393
5,45067	5388
5,46133	5405
5,47200	5433
5,48267	5453
5,49333	5464
5,50400	5461
5,51467	5450
5,52533	5427
5,53600	5385
5,54667	5340
5,55733	5284
5,56800	5234
5,57867	5173
5,58933	5127
5,60000	5099
5,61067	5060
5,62133	5045
5,63200	5037
5,64267	5048
5,65333	5062
5,66400	5091
5,67467	5130
5,68533	5180
5,69600	5248
5,70667	5328
5,71733	5414
5,72800	5511
5,73867	5608
5,74933	5712
5,76000	5808
5,77067	5893
5,78133	5974
5,79200	6060
5,80267	6134
5,81333	6202
5,82400	6250
5,83467	6310
5,84533	6373
5,85600	6427
5,86667	6493
5,87733	6560
5,88800	6634
5,89867	6728
5,90933	6836
5,92000	6988
5,93067	7145
5,94133	7344
5,95200	7576
5,96267	7833
5,97333	8124
5,98400	8419
5,99467	8708
6,00533	8984
6,01600	9217
6,02667	9406
6,03733	9540
6,04800	9613
6,05867	9631
6,06933	9619
6,08000	9587
6,09067	9536
6,10133	9490
6,11200	9457
6,12267	9438
6,13333	9445
6,14400	9470
6,15467	9518
6,16533	9598
6,17600	9704
6,18667	9846
6,19733	10036
6,20800	10248
6,21867	10536
6,22933	10904
6,24000	11405
6,25067	12051
6,26133	12909
6,27200	14031
6,28267	15458
6,29333	17267
6,30400	19469
6,31467	22100
6,32533	25089
6,33600	28400
6,34667	31891
6,35733	35441
6,36800	38825
6,37867	41860
6,38933	44335
6,40000	46104
6,41067	47037
6,42133	47081
6,43200	46253
6,44267	44624
6,45333	42327
6,46400	39550
6,47467	36424
6,48533	33173
6,49600	29914
6,50667	26791
6,51733	23902
6,52800	21305
6,53867	19033
6,54933	17074
6,56000	15423
6,57067	14055
6,58133	12930
6,59200	12017
6,60267	11311
6,61333	10773
6,62400	10409
6,63467	10259
6,64533	10386
6,65600	10942
6,66667	12118
6,67733	14223
6,68800	17608
6,69867	22659
6,70933	29622
6,72000	38667
6,73067	49575
6,74133	61900
6,75200	74877
6,76267	87714
6,77333	99620
6,78400	109868
6,79467	118058
6,80533	123927
6,81600	127496
6,82667	128903
6,83733	128370
6,84800	126218
6,85867	122707
6,86933	118178
6,88000	112882
6,89067	107113
6,90133	101030
6,91200	94848
6,92267	88690
6,93333	82727
6,94400	77025
6,95467	71653
6,96533	66670
6,97600	62096
6,98667	57956
6,99733	54197
7,00800	50842
7,01867	47832
7,02933	45163
7,04000	42777
7,05067	40659
7,06133	38755
7,07200	37047
7,08267	35502
7,09333	34078
7,10400	32774
7,11467	31554
7,12533	30416
7,13600	29326
7,14667	28288
7,15733	27278
7,16800	26307
7,17867	25369
7,18933	24455
7,20000	23564
7,21067	22715
7,22133	21860
7,23200	21041
7,24267	20240
7,25333	19465
7,26400	18695
7,27467	17945
7,28533	17224
7,29600	16531
7,30667	15857
7,31733	15213
7,32800	14599
7,33867	14021
7,34933	13474
7,36000	12954
7,37067	12474
7,38133	12018
7,39200	11615
7,40267	11235
7,41333	10893
7,42400	10593
7,43467	10321
7,44533	10093
7,45600	9897
7,46667	9723
7,47733	9574
7,48800	9429
7,49867	9312
7,50933	9196
7,52000	9091
7,53067	8992
7,54133	8902
7,55200	8811
7,56267	8740
7,57333	8686
7,58400	8650
7,59467	8669
7,60533	8734
7,61600	8838
7,62667	9012
7,63733	9247
7,64800	9548
7,65867	9917
7,66933	10347
7,68000	10813
7,69067	11319
7,70133	11815
7,71200	12288
7,72267	12717
7,73333	13080
7,74400	13357
7,75467	13530
7,76533	13592
7,77600	13537
7,78667	13389
7,79733	13150
7,80800	12834
7,81867	12462
7,82933	12058
7,84000	11635
7,85067	11211
7,86133	10809
7,87200	10430
7,88267	10084
7,89333	9780
7,90400	9536
7,91467	9337
7,92533	9191
7,93600	9100
7,94667	9079
7,95733	9152
7,96800	9328
7,97867	9647
7,98933	10132
8,00000	10844
8,01067	11802
8,02133	13075
8,03200	14662
8,04267	16571
8,05333	18765
8,06400	21202
8,07467	23771
8,08533	26380
8,09600	28872
8,10667	31133
8,11733	33023
8,12800	34444
8,13867	35324
8,14933	35638
8,16000	35397
8,17067	34634
8,18133	33437
8,19200	31900
8,20267	30138
8,21333	28249
8,22400	26348
8,23467	24510
8,24533	22824
8,25600	21357
8,26667	20129
8,27733	19191
8,28800	18550
8,29867	18215
8,30933	18186
8,32000	18466
8,33067	19089
8,34133	20098
8,35200	21690
8,36267	24279
8,37333	28575
8,38400	35766
8,39467	47394
8,40533	65158
8,41600	90101
8,42667	122398
8,43733	160183
8,44800	200445
8,45867	238998
8,46933	272407
8,48000	297969
8,49067	314653
8,50133	322561
8,51200	322730
8,52267	316551
8,53333	305479
8,54400	290817
8,55467	273646
8,56533	254762
8,57600	234905
8,58667	214548
8,59733	194260
8,60800	174279
8,61867	155064
8,62933	136754
8,64000	119702
8,65067	104002
8,66133	89838
8,67200	77214
8,68267	66213
8,69333	56765
8,70400	48812
8,71467	42225
8,72533	36870
8,73600	32623
8,74667	29334
8,75733	26862
8,76800	25094
8,77867	23936
8,78933	23299
8,80000	23125
8,81067	23339
8,82133	23888
8,83200	24721
8,84267	25761
8,85333	26918
8,86400	28123
8,87467	29289
8,88533	30337
8,89600	31178
8,90667	31766
8,91733	32063
8,92800	32051
8,93867	31721
8,94933	31103
8,96000	30243
8,97067	29156
8,98133	27924
8,99200	26598
9,00267	25219
9,01333	23830
9,02400	22477
9,03467	21171
9,04533	19940
9,05600	18790
9,06667	17745
9,07733	16783
9,08800	15903
9,09867	15115
9,10933	14415
9,12000	13795
9,13067	13235
9,14133	12750
9,15200	12328
9,16267	11963
9,17333	11654
9,18400	11388
9,19467	11171
9,20533	10988
9,21600	10835
9,22667	10703
9,23733	10592
9,24800	10499
9,25867	10413
9,26933	10354
9,28000	10290
9,29067	10238
9,30133	10217
9,31200	10225
9,32267	10307
9,33333	10503
9,34400	10896
9,35467	11572
9,36533	12676
9,37600	14414
9,38667	16997
9,39733	20712
9,40800	25831
9,41867	32641
9,42933	41274
9,44000	51785
9,45067	64066
9,46133	77639
9,47200	91925
9,48267	105994
9,49333	118963
9,50400	129777
9,51467	137616
9,52533	141840
9,53600	142143
9,54667	138626
9,55733	131658
9,56800	122009
9,57867	110448
9,58933	97903
9,60000	85187
9,61067	73011
9,62133	61894
9,63200	52110
9,64267	43823
9,65333	37001
9,66400	31574
9,67467	27337
9,68533	24130
9,69600	21723
9,70667	19966
9,71733	18683
9,72800	17769
9,73867	17104
9,74933	16629
9,76000	16290
9,77067	16021
9,78133	15812
9,79200	15650
9,80267	15526
9,81333	15442
9,82400	15398
9,83467	15417
9,84533	15513
9,85600	15709
9,86667	16049
9,87733	16545
9,88800	17244
9,89867	18167
9,90933	19331
9,92000	20738
9,93067	22344
9,94133	24109
9,95200	25942
9,96267	27740
9,97333	29380
9,98400	30751
9,99467	31745
10,00533	32279
10,01600	32331
10,02667	31878
10,03733	30995
10,04800	29745
10,05867	28213
10,06933	26526
10,08000	24753
10,09067	23007
10,10133	21373
10,11200	19882
10,12267	18575
10,13333	17480
10,14400	16593
10,15467	15929
10,16533	15495
10,17600	15276
10,18667	15273
10,19733	15482
10,20800	15882
10,21867	16450
10,22933	17145
10,24000	17932
10,25067	18736
10,26133	19509
10,27200	20169
10,28267	20676
10,29333	20984
10,30400	21072
10,31467	20947
10,32533	20609
10,33600	20100
10,34667	19457
10,35733	18722
10,36800	17956
10,37867	17194
10,38933	16484
10,40000	15834
10,41067	15269
10,42133	14795
10,43200	14407
10,44267	14115
10,45333	13894
10,46400	13726
10,47467	13608
10,48533	13529
10,49600	13475
10,50667	13438
10,51733	13402
10,52800	13376
10,53867	13336
10,54933	13291
10,56000	13238
10,57067	13190
10,58133	13143
10,59200	13104
10,60267	13069
10,61333	13058
10,62400	13047
10,63467	13038
10,64533	13030
10,65600	13005
10,66667	12978
10,67733	12921
10,68800	12837
10,69867	12731
10,70933	12598
10,72000	12454
10,73067	12301
10,74133	12147
10,75200	12020
10,76267	11912
10,77333	11833
10,78400	11794
10,79467	11779
10,80533	11807
10,81600	11871
10,82667	11953
10,83733	12053
10,84800	12159
10,85867	12301
10,86933	12445
10,88000	12593
10,89067	12772
10,90133	12985
10,91200	13249
10,92267	13630
10,93333	14163
10,94400	14957
10,95467	16128
10,96533	17870
10,97600	20377
10,98667	23906
10,99733	28699
11,00800	35018
11,01867	43000
11,02933	52714
11,04000	64015
11,05067	76578
11,06133	89950
11,07200	103406
11,08267	116218
11,09333	127566
11,10400	136792
11,11467	143308
11,12533	146811
11,13600	147186
11,14667	144577
11,15733	139320
11,16800	131861
11,17867	122788
11,18933	112635
11,20000	101955
11,21067	91200
11,22133	80772
11,23200	70977
11,24267	61962
11,25333	53887
11,26400	46741
11,27467	40571
11,28533	35290
11,29600	30838
11,30667	27113
11,31733	24032
11,32800	21490
11,33867	19428
11,34933	17736
11,36000	16368
11,37067	15268
11,38133	14394
11,39200	13702
11,40267	13186
11,41333	12799
11,42400	12544
11,43467	12407
11,44533	12379
11,45600	12450
11,46667	12610
11,47733	12856
11,48800	13191
11,49867	13603
11,50933	14092
11,52000	14659
11,53067	15310
11,54133	16022
11,55200	16812
11,56267	17666
11,57333	18577
11,58400	19514
11,59467	20454
11,60533	21357
11,61600	22164
11,62667	22843
11,63733	23341
11,64800	23630
11,65867	23689
11,66933	23522
11,68000	23146
11,69067	22599
11,70133	21936
11,71200	21202
11,72267	20448
11,73333	19726
11,74400	19070
11,75467	18479
11,76533	17958
11,77600	17514
11,78667	17120
11,79733	16778
11,80800	16478
11,81867	16235
11,82933	16050
11,84000	15950
11,85067	15988
11,86133	16178
11,87200	16622
11,88267	17431
11,89333	18886
11,90400	21502
11,91467	26197
11,92533	34558
11,93600	49054
11,94667	73295
11,95733	111663
11,96800	169337
11,97867	250021
11,98933	356182
12,00000	484882
12,01067	630126
12,02133	780497
12,03200	925016
12,04267	1052061
12,05333	1154176
12,06400	1226864
12,07467	1269568
12,08533	1284051
12,09600	1273790
12,10667	1242432
12,11733	1194218
12,12800	1132713
12,13867	1061742
12,14933	983929
12,16000	902432
12,17067	818932
12,18133	735719
12,19200	654230
12,20267	576335
12,21333	502752
12,22400	434706
12,23467	372567
12,24533	316979
12,25600	267726
12,26667	224803
12,27733	187821
12,28800	156375
12,29867	129960
12,30933	107902
12,32000	89699
12,33067	74730
12,34133	62568
12,35200	52701
12,36267	44742
12,37333	38332
12,38400	33236
12,39467	29178
12,40533	25988
12,41600	23494
12,42667	21596
12,43733	20164
12,44800	19087
12,45867	18303
12,46933	17743
12,48000	17341
12,49067	17044
12,50133	16806
12,51200	16601
12,52267	16396
12,53333	16192
12,54400	15987
12,55467	15784
12,56533	15625
12,57600	15545
12,58667	15610
12,59733	15937
12,60800	16632
12,61867	17870
12,62933	19831
12,64000	22727
12,65067	26723
12,66133	31918
12,67200	38297
12,68267	45674
12,69333	53713
12,70400	61888
12,71467	69638
12,72533	76376
12,73600	81651
12,74667	85088
12,75733	86565
12,76800	86121
12,77867	83888
12,78933	80181
12,80000	75305
12,81067	69608
12,82133	63425
12,83200	57049
12,84267	50777
12,85333	44781
12,86400	39251
12,87467	34267
12,88533	29919
12,89600	26183
12,90667	23080
12,91733	20558
12,92800	18666
12,93867	17623
12,94933	18486
12,96000	24263
12,97067	41153
12,98133	78416
12,99200	143906
13,00267	238787
13,01333	354561
13,02400	475310
13,03467	585680
13,04533	674525
13,05600	738596
13,06667	779308
13,07733	801159
13,08800	808902
13,09867	806564
13,10933	797134
13,12000	782773
13,13067	764966
13,14133	744489
13,15200	722220
13,16267	698611
13,17333	674032
13,18400	648811
13,19467	623157
13,20533	597425
13,21600	571693
13,22667	546213
13,23733	520974
13,24800	496212
13,25867	471908
13,26933	448255
13,28000	425178
13,29067	402850
13,30133	381203
13,31200	360354
13,32267	340234
13,33333	320943
13,34400	302435
13,35467	284762
13,36533	267935
13,37600	251856
13,38667	236616
13,39733	222142
13,40800	208497
13,41867	195566
13,42933	183423
13,44000	171965
13,45067	161226
13,46133	151113
13,47200	141648
13,48267	132763
13,49333	124464
13,50400	116689
13,51467	109449
13,52533	102684
13,53600	96397
13,54667	90574
13,55733	85175
13,56800	80202
13,57867	75628
13,58933	71439
13,60000	67594
13,61067	64075
13,62133	60854
13,63200	57943
13,64267	55291
13,65333	52911
13,66400	50803
13,67467	48994
13,68533	47515
13,69600	46397
13,70667	45694
13,71733	45461
13,72800	45723
13,73867	46499
13,74933	47749
13,76000	49414
13,77067	51356
13,78133	53422
13,79200	55418
13,80267	57145
13,81333	58387
13,82400	58996
13,83467	58853
13,84533	57936
13,85600	56259
13,86667	53903
13,87733	51008
13,88800	47752
13,89867	44288
13,90933	40823
13,92000	37469
13,93067	34364
13,94133	31585
13,95200	29181
13,96267	27146
13,97333	25497
13,98400	24192
13,99467	23192
14,00533	22452
14,01600	21916
14,02667	21529
14,03733	21256
14,04800	21047
14,05867	20875
14,06933	20691
14,08000	20481
14,09067	20237
14,10133	19943
14,11200	19616
14,12267	19255
14,13333	18874
14,14400	18481
14,15467	18101
14,16533	17740
14,17600	17412
14,18667	17140
14,19733	16922
14,20800	16799
14,21867	16762
14,22933	16857
14,24000	17085
14,25067	17488
14,26133	18050
14,27200	18796
14,28267	19706
14,29333	20761
14,30400	21905
14,31467	23059
14,32533	24179
14,33600	25163
14,34667	25957
14,35733	26479
14,36800	26713
14,37867	26633
14,38933	26258
14,40000	25632
14,41067	24803
14,42133	23860
14,43200	22864
14,44267	21886
14,45333	20977
14,46400	20181
14,47467	19511
14,48533	19000
14,49600	18629
14,50667	18393
14,51733	18264
14,52800	18234
14,53867	18245
14,54933	18313
14,56000	18377
14,57067	18424
14,58133	18428
14,59200	18386
14,60267	18283
14,61333	18102
14,62400	17868
14,63467	17565
14,64533	17216
14,65600	16834
14,66667	16443
14,67733	16052
14,68800	15680
14,69867	15334
14,70933	15026
14,72000	14776
14,73067	14557
14,74133	14391
14,75200	14263
14,76267	14196
14,77333	14151
14,78400	14150
14,79467	14180
14,80533	14224
14,81600	14287
14,82667	14370
14,83733	14466
14,84800	14578
14,85867	14699
14,86933	14822
14,88000	14970
14,89067	15135
14,90133	15310
14,91200	15500
14,92267	15709
14,93333	15946
14,94400	16214
14,95467	16560
14,96533	16992
14,97600	17545
14,98667	18283
14,99733	19247
15,00800	20504
15,01867	22082
15,02933	24022
15,04000	26301
15,05067	28891
15,06133	31690
15,07200	34586
15,08267	37376
15,09333	39903
15,10400	41979
15,11467	43430
15,12533	44150
15,13600	44092
15,14667	43268
15,15733	41754
15,16800	39686
15,17867	37237
15,18933	34548
15,20000	31824
15,21067	29182
15,22133	26730
15,23200	24537
15,24267	22646
15,25333	21076
15,26400	19808
15,27467	18811
15,28533	18073
15,29600	17567
15,30667	17271
15,31733	17155
15,32800	17199
15,33867	17374
15,34933	17657
15,36000	18015
15,37067	18413
15,38133	18815
15,39200	19167
15,40267	19437
15,41333	19587
15,42400	19606
15,43467	19496
15,44533	19260
15,45600	18920
15,46667	18523
15,47733	18097
15,48800	17660
15,49867	17273
15,50933	16941
15,52000	16685
15,53067	16501
15,54133	16378
15,55200	16295
15,56267	16228
15,57333	16155
15,58400	16055
15,59467	15919
15,60533	15735
15,61600	15501
15,62667	15225
15,63733	14918
15,64800	14583
15,65867	14243
15,66933	13911
15,68000	13598
15,69067	13322
15,70133	13079
15,71200	12867
15,72267	12686
15,73333	12557
15,74400	12456
15,75467	12392
15,76533	12359
15,77600	12352
15,78667	12361
15,79733	12396
15,80800	12444
15,81867	12499
15,82933	12592
15,84000	12742
15,85067	12970
15,86133	13358
15,87200	14034
15,88267	15183
15,89333	17106
15,90400	20197
15,91467	25044
15,92533	32296
15,93600	42815
15,94667	57342
15,95733	76646
15,96800	100984
15,97867	130314
15,98933	163695
16,00000	199836
16,01067	236500
16,02133	271349
16,03200	301924
16,04267	326101
16,05333	342386
16,06400	349938
16,07467	348692
16,08533	339396
16,09600	323144
16,10667	301567
16,11733	276197
16,12800	248792
16,13867	220678
16,14933	193226
16,16000	167276
16,17067	143594
16,18133	122446
16,19200	104066
16,20267	88366
16,21333	75181
16,22400	64233
16,23467	55192
16,24533	47804
16,25600	41760
16,26667	36833
16,27733	32791
16,28800	29461
16,29867	26722
16,30933	24458
16,32000	22581
16,33067	21025
16,34133	19725
16,35200	18636
16,36267	17726
16,37333	16958
16,38400	16299
16,39467	15743
16,40533	15276
16,41600	14878
16,42667	14545
16,43733	14268
16,44800	14045
16,45867	13838
16,46933	13675
16,48000	13526
16,49067	13392
16,50133	13269
16,51200	13142
16,52267	13016
16,53333	12895
16,54400	12767
16,55467	12651
16,56533	12551
16,57600	12477
16,58667	12420
16,59733	12382
16,60800	12386
16,61867	12427
16,62933	12487
16,64000	12586
16,65067	12702
16,66133	12837
16,67200	12979
16,68267	13097
16,69333	13201
16,70400	13282
16,71467	13326
16,72533	13338
16,73600	13298
16,74667	13221
16,75733	13130
16,76800	13031
16,77867	12935
16,78933	12867
16,80000	12855
16,81067	12926
16,82133	13121
16,83200	13483
16,84267	14049
16,85333	14877
16,86400	15995
16,87467	17447
16,88533	19250
16,89600	21373
16,90667	23773
16,91733	26356
16,92800	29023
16,93867	31613
16,94933	33970
16,96000	35959
16,97067	37435
16,98133	38323
16,99200	38572
17,00267	38163
17,01333	37182
17,02400	35700
17,03467	33855
17,04533	31756
17,05600	29534
17,06667	27291
17,07733	25140
17,08800	23137
17,09867	21332
17,10933	19740
17,12000	18366
17,13067	17212
17,14133	16243
17,15200	15463
17,16267	14847
17,17333	14378
17,18400	14044
17,19467	13848
17,20533	13773
17,21600	13823
17,22667	13995
17,23733	14298
17,24800	14730
17,25867	15300
17,26933	15997
17,28000	16828
17,29067	17752
17,30133	18760
17,31200	19839
17,32267	20943
17,33333	22020
17,34400	23041
17,35467	23931
17,36533	24666
17,37600	25184
17,38667	25477
17,39733	25546
17,40800	25394
17,41867	25027
17,42933	24501
17,44000	23867
17,45067	23156
17,46133	22426
17,47200	21704
17,48267	21022
17,49333	20418
17,50400	19883
17,51467	19435
17,52533	19061
17,53600	18744
17,54667	18475
17,55733	18247
17,56800	18036
17,57867	17827
17,58933	17615
17,60000	17373
17,61067	17111
17,62133	16821
17,63200	16501
17,64267	16154
17,65333	15787
17,66400	15407
17,67467	15030
17,68533	14648
17,69600	14287
17,70667	13956
17,71733	13680
17,72800	13451
17,73867	13292
17,74933	13221
17,76000	13261
17,77067	13425
17,78133	13730
17,79200	14206
17,80267	14819
17,81333	15577
17,82400	16461
17,83467	17433
17,84533	18443
17,85600	19450
17,86667	20384
17,87733	21188
17,88800	21821
17,89867	22247
17,90933	22438
17,92000	22403
17,93067	22141
17,94133	21686
17,95200	21090
17,96267	20381
17,97333	19606
17,98400	18808
17,99467	18029
18,00533	17284
18,01600	16625
18,02667	16037
18,03733	15545
18,04800	15133
18,05867	14817
18,06933	14564
18,08000	14384
18,09067	14240
18,10133	14135
18,11200	14054
18,12267	13991
18,13333	13944
18,14400	13920
18,15467	13914
18,16533	13940
18,17600	13994
18,18667	14086
18,19733	14207
18,20800	14371
18,21867	14557
18,22933	14762
18,24000	14970
18,25067	15170
18,26133	15360
18,27200	15513
18,28267	15642
18,29333	15724
18,30400	15769
18,31467	15766
18,32533	15721
18,33600	15639
18,34667	15528
18,35733	15398
18,36800	15238
18,37867	15070
18,38933	14885
18,40000	14691
18,41067	14503
18,42133	14346
18,43200	14190
18,44267	14082
18,45333	14022
18,46400	14032
18,47467	14128
18,48533	14314
18,49600	14631
18,50667	15094
18,51733	15734
18,52800	16584
18,53867	17679
18,54933	19025
18,56000	20677
18,57067	22651
18,58133	24947
18,59200	27570
18,60267	30459
18,61333	33643
18,62400	37070
18,63467	40761
18,64533	44686
18,65600	48907
18,66667	53486
18,67733	58542
18,68800	64132
18,69867	70348
18,70933	77204
18,72000	84631
18,73067	92518
18,74133	100565
18,75200	108452
18,76267	115732
18,77333	121991
18,78400	126781
18,79467	129768
18,80533	130727
18,81600	129542
18,82667	126269
18,83733	121071
18,84800	114273
18,85867	106216
18,86933	97329
18,88000	88039
18,89067	78715
18,90133	69694
18,91200	61197
18,92267	53478
18,93333	46582
18,94400	40593
18,95467	35467
18,96533	31192
18,97600	27679
18,98667	24882
18,99733	22693
19,00800	21025
19,01867	19823
19,02933	19013
19,04000	18531
19,05067	18297
19,06133	18275
19,07200	18387
19,08267	18599
19,09333	18856
19,10400	19120
19,11467	19347
19,12533	19521
19,13600	19628
19,14667	19662
19,15733	19616
19,16800	19493
19,17867	19316
19,18933	19082
19,20000	18831
19,21067	18556
19,22133	18288
19,23200	18031
19,24267	17795
19,25333	17599
19,26400	17438
19,27467	17321
19,28533	17247
19,29600	17209
19,30667	17199
19,31733	17209
19,32800	17236
19,33867	17271
19,34933	17297
19,36000	17321
19,37067	17326
19,38133	17315
19,39200	17296
19,40267	17258
19,41333	17212
19,42400	17160
19,43467	17094
19,44533	17014
19,45600	16914
19,46667	16812
19,47733	16682
19,48800	16545
19,49867	16416
19,50933	16286
19,52000	16198
19,53067	16151
19,54133	16185
19,55200	16313
19,56267	16545
19,57333	16894
19,58400	17345
19,59467	17890
19,60533	18483
19,61600	19086
19,62667	19656
19,63733	20147
19,64800	20519
19,65867	20739
19,66933	20801
19,68000	20704
19,69067	20475
19,70133	20151
19,71200	19768
19,72267	19369
19,73333	18991
19,74400	18700
19,75467	18501
19,76533	18418
19,77600	18468
19,78667	18648
19,79733	18912
19,80800	19254
19,81867	19652
19,82933	20046
19,84000	20391
19,85067	20662
19,86133	20809
19,87200	20827
19,88267	20691
19,89333	20399
19,90400	19969
19,91467	19430
19,92533	18789
19,93600	18098
19,94667	17412
19,95733	16735
19,96800	16120
19,97867	15569
19,98933	15116
20,00000	14746
20,01067	14467
20,02133	14265
20,03200	14111
20,04267	14020
20,05333	13950
20,06400	13904
20,07467	13850
20,08533	13799
20,09600	13729
20,10667	13636
20,11733	13532
20,12800	13413
20,13867	13278
20,14933	13140
20,16000	13018
20,17067	12895
20,18133	12785
20,19200	12721
20,20267	12703
20,21333	12746
20,22400	12864
20,23467	13081
20,24533	13423
20,25600	13914
20,26667	14575
20,27733	15405
20,28800	16449
20,29867	17685
20,30933	19081
20,32000	20619
20,33067	22239
20,34133	23868
20,35200	25422
20,36267	26845
20,37333	28037
20,38400	28945
20,39467	29521
20,40533	29745
20,41600	29595
20,42667	29113
20,43733	28329
20,44800	27308
20,45867	26120
20,46933	24825
20,48000	23497
20,49067	22220
20,50133	21033
20,51200	20022
20,52267	19230
20,53333	18690
20,54400	18427
20,55467	18466
20,56533	18803
20,57600	19420
20,58667	20255
20,59733	21269
20,60800	22389
20,61867	23544
20,62933	24643
20,64000	25610
20,65067	26369
20,66133	26880
20,67200	27101
20,68267	27035
20,69333	26696
20,70400	26116
20,71467	25367
20,72533	24482
20,73600	23530
20,74667	22567
20,75733	21655
20,76800	20812
20,77867	20058
20,78933	19398
20,80000	18838
20,81067	18369
20,82133	17979
20,83200	17637
20,84267	17307
20,85333	17016
20,86400	16725
20,87467	16444
20,88533	16146
20,89600	15843
20,90667	15545
20,91733	15237
20,92800	14932
20,93867	14637
20,94933	14344
20,96000	14072
20,97067	13812
20,98133	13577
20,99200	13371
21,00267	13185
21,01333	13017
21,02400	12874
21,03467	12741
21,04533	12631
21,05600	12534
21,06667	12447
21,07733	12382
21,08800	12339
21,09867	12314
21,10933	12293
21,12000	12323
21,13067	12392
21,14133	12524
21,15200	12738
21,16267	13070
21,17333	13569
21,18400	14276
21,19467	15257
21,20533	16559
21,21600	18268
21,22667	20437
21,23733	23100
21,24800	26293
21,25867	29977
21,26933	34085
21,28000	38510
21,29067	43099
21,30133	47618
21,31200	51871
21,32267	55613
21,33333	58656
21,34400	60832
21,35467	62064
21,36533	62336
21,37600	61754
21,38667	60483
21,39733	58814
21,40800	57061
21,41867	55654
21,42933	55017
21,44000	55593
21,45067	57846
21,46133	62153
21,47200	68890
21,48267	78258
21,49333	90392
21,50400	105131
21,51467	122249
21,52533	141145
21,53600	161115
21,54667	181165
21,55733	200249
21,56800	217285
21,57867	231197
21,58933	241156
21,60000	246514
21,61067	246985
21,62133	242636
21,63200	233741
21,64267	221034
21,65333	205239
21,66400	187369
21,67467	168273
21,68533	148952
21,69600	130065
21,70667	112285
21,71733	95980
21,72800	81450
21,73867	68784
21,74933	57950
21,76000	48849
21,77067	41309
21,78133	35164
21,79200	30173
21,80267	26177
21,81333	22989
21,82400	20483
21,83467	18496
21,84533	16955
21,85600	15762
21,86667	14849
21,87733	14169
21,88800	13682
21,89867	13336
21,90933	13132
21,92000	13036
21,93067	13051
21,94133	13176
21,95200	13417
21,96267	13778
21,97333	14275
21,98400	14904
21,99467	15689
22,00533	16615
22,01600	17681
22,02667	18853
22,03733	20112
22,04800	21415
22,05867	22689
22,06933	23890
22,08000	24953
22,09067	25834
22,10133	26479
22,11200	26851
22,12267	26947
22,13333	26759
22,14400	26303
22,15467	25618
22,16533	24761
22,17600	23782
22,18667	22737
22,19733	21672
22,20800	20653
22,21867	19724
22,22933	18916
22,24000	18251
22,25067	17748
22,26133	17401
22,27200	17172
22,28267	17077
22,29333	17084
22,30400	17161
22,31467	17267
22,32533	17368
22,33600	17462
22,34667	17531
22,35733	17562
22,36800	17544
22,37867	17464
22,38933	17340
22,40000	17170
22,41067	16957
22,42133	16722
22,43200	16447
22,44267	16147
22,45333	15827
22,46400	15489
22,47467	15164
22,48533	14838
22,49600	14535
22,50667	14282
22,51733	14073
22,52800	13929
22,53867	13860
22,54933	13876
22,56000	13970
22,57067	14158
22,58133	14417
22,59200	14759
22,60267	15153
22,61333	15590
22,62400	16044
22,63467	16509
22,64533	16950
22,65600	17358
22,66667	17712
22,67733	17989
22,68800	18193
22,69867	18321
22,70933	18344
22,72000	18285
22,73067	18140
22,74133	17922
22,75200	17648
22,76267	17300
22,77333	16912
22,78400	16495
22,79467	16061
22,80533	15612
22,81600	15183
22,82667	14778
22,83733	14391
22,84800	14037
22,85867	13712
22,86933	13424
22,88000	13178
22,89067	12964
22,90133	12775
22,91200	12638
22,92267	12544
22,93333	12494
22,94400	12512
22,95467	12601
22,96533	12787
22,97600	13064
22,98667	13445
22,99733	13933
23,00800	14524
23,01867	15212
23,02933	15949
23,04000	16742
23,05067	17538
23,06133	18292
23,07200	18960
23,08267	19532
23,09333	19967
23,10400	20249
23,11467	20384
23,12533	20376
23,13600	20258
23,14667	20047
23,15733	19779
23,16800	19500
23,17867	19251
23,18933	19066
23,20000	18969
23,21067	18993
23,22133	19147
23,23200	19411
23,24267	19801
23,25333	20305
23,26400	20912
23,27467	21605
23,28533	22375
23,29600	23184
23,30667	24040
23,31733	24915
23,32800	25790
23,33867	26619
23,34933	27386
23,36000	28044
23,37067	28556
23,38133	28897
23,39200	29032
23,40267	28951
23,41333	28672
23,42400	28220
23,43467	27648
23,44533	27004
23,45600	26358
23,46667	25783
23,47733	25359
23,48800	25109
23,49867	25066
23,50933	25232
23,52000	25609
23,53067	26131
23,54133	26754
23,55200	27389
23,56267	27988
23,57333	28456
23,58400	28746
23,59467	28811
23,60533	28629
23,61600	28190
23,62667	27511
23,63733	26621
23,64800	25573
23,65867	24429
23,66933	23220
23,68000	22038
23,69067	20883
23,70133	19811
23,71200	18840
23,72267	17988
23,73333	17269
23,74400	16647
23,75467	16122
23,76533	15685
23,77600	15323
23,78667	15022
23,79733	14759
23,80800	14557
23,81867	14385
23,82933	14241
23,84000	14133
23,85067	14083
23,86133	14098
23,87200	14207
23,88267	14459
23,89333	14909
23,90400	15639
23,91467	16726
23,92533	18305
23,93600	20462
23,94667	23329
23,95733	26997
23,96800	31553
23,97867	36996
23,98933	43329
24,00000	50414
24,01067	58113
24,02133	66150
24,03200	74256
24,04267	82086
24,05333	89340
24,06400	95694
24,07467	100885
24,08533	104739
24,09600	107102
24,10667	107971
24,11733	107357
24,12800	105353
24,13867	102095
24,14933	97744
24,16000	92529
24,17067	86623
24,18133	80267
24,19200	73623
24,20267	66930
24,21333	60343
24,22400	54024
24,23467	48086
24,24533	42607
24,25600	37676
24,26667	33310
24,27733	29534
24,28800	26302
24,29867	23598
24,30933	21357
24,32000	19518
24,33067	18026
24,34133	16843
24,35200	15906
24,36267	15152
24,37333	14551
24,38400	14070
24,39467	13699
24,40533	13389
24,41600	13136
24,42667	12918
24,43733	12745
24,44800	12590
24,45867	12464
24,46933	12339
24,48000	12241
24,49067	12156
24,50133	12074
24,51200	11993
24,52267	11941
24,53333	11900
24,54400	11860
24,55467	11840
24,56533	11832
24,57600	11830
24,58667	11851
24,59733	11882
24,60800	11913
24,61867	11967
24,62933	12019
24,64000	12078
24,65067	12134
24,66133	12170
24,67200	12210
24,68267	12237
24,69333	12241
24,70400	12239
24,71467	12206
24,72533	12165
24,73600	12107
24,74667	12052
24,75733	11984
24,76800	11911
24,77867	11851
24,78933	11813
24,80000	11783
24,81067	11769
24,82133	11768
24,83200	11785
24,84267	11817
24,85333	11873
24,86400	11929
24,87467	11985
24,88533	12048
24,89600	12088
24,90667	12123
24,91733	12157
24,92800	12169
24,93867	12153
24,94933	12124
24,96000	12091
24,97067	12050
24,98133	12022
24,99200	11995
25,00267	11974
25,01333	11986
25,02400	12026
25,03467	12102
25,04533	12212
25,05600	12359
25,06667	12552
25,07733	12781
25,08800	13042
25,09867	13314
25,10933	13603
25,12000	13887
25,13067	14155
25,14133	14386
25,15200	14576
25,16267	14703
25,17333	14766
25,18400	14759
25,19467	14684
25,20533	14548
25,21600	14359
25,22667	14140
25,23733	13883
25,24800	13626
25,25867	13355
25,26933	13102
25,28000	12852
25,29067	12625
25,30133	12418
25,31200	12236
25,32267	12080
25,33333	11940
25,34400	11824
25,35467	11731
25,36533	11659
25,37600	11604
25,38667	11574
25,39733	11563
25,40800	11575
25,41867	11610
25,42933	11664
25,44000	11750
25,45067	11844
25,46133	11948
25,47200	12066
25,48267	12177
25,49333	12273
25,50400	12346
25,51467	12415
25,52533	12441
25,53600	12433
25,54667	12416
25,55733	12366
25,56800	12305
25,57867	12227
25,58933	12148
25,60000	12089
25,61067	12034
25,62133	12004
25,63200	11979
25,64267	11968
25,65333	11975
25,66400	11994
25,67467	12026
25,68533	12054
25,69600	12079
25,70667	12110
25,71733	12141
25,72800	12157
25,73867	12181
25,74933	12196
25,76000	12206
25,77067	12211
25,78133	12218
25,79200	12210
25,80267	12190
25,81333	12158
25,82400	12117
25,83467	12071
25,84533	12020
25,85600	11966
25,86667	11901
25,87733	11851
25,88800	11806
25,89867	11763
25,90933	11745
25,92000	11727
25,93067	11727
25,94133	11741
25,95200	11760
25,96267	11801
25,97333	11843
25,98400	11885
25,99467	11943
26,00533	11988
26,01600	12044
26,02667	12094
26,03733	12141
26,04800	12187
26,05867	12228
26,06933	12268
26,08000	12310
26,09067	12349
26,10133	12401
26,11200	12439
26,12267	12471
26,13333	12498
26,14400	12511
26,15467	12508
26,16533	12486
26,17600	12454
26,18667	12401
26,19733	12341
26,20800	12268
26,21867	12195
26,22933	12114
26,24000	12038
26,25067	11974
26,26133	11898
26,27200	11833
26,28267	11775
26,29333	11723
26,30400	11665
26,31467	11616
26,32533	11571
26,33600	11530
26,34667	11495
26,35733	11455
26,36800	11420
26,37867	11390
26,38933	11373
26,40000	11358
26,41067	11348
26,42133	11347
26,43200	11355
26,44267	11381
26,45333	11410
26,46400	11444
26,47467	11484
26,48533	11515
26,49600	11539
26,50667	11589
26,51733	11623
26,52800	11655
26,53867	11696
26,54933	11735
26,56000	11779
26,57067	11833
26,58133	11890
26,59200	11956
26,60267	12021
26,61333	12085
26,62400	12158
26,63467	12221
26,64533	12283
26,65600	12332
26,66667	12371
26,67733	12409
26,68800	12426
26,69867	12437
26,70933	12440
26,72000	12424
26,73067	12396
26,74133	12361
26,75200	12327
26,76267	12284
26,77333	12243
26,78400	12201
26,79467	12174
26,80533	12147
26,81600	12134
26,82667	12123
26,83733	12132
26,84800	12158
26,85867	12194
26,86933	12230
26,88000	12270
26,89067	12299
26,90133	12320
26,91200	12319
26,92267	12298
26,93333	12261
26,94400	12201
26,95467	12129
26,96533	12039
26,97600	11950
26,98667	11856
26,99733	11764
27,00800	11693
27,01867	11624
27,02933	11580
27,04000	11551
27,05067	11530
27,06133	11531
27,07200	11530
27,08267	11537
27,09333	11541
27,10400	11556
27,11467	11569
27,12533	11568
27,13600	11568
27,14667	11555
27,15733	11552
27,16800	11546
27,17867	11539
27,18933	11536
27,20000	11540
27,21067	11555
27,22133	11566
27,23200	11585
27,24267	11607
27,25333	11628
27,26400	11654
27,27467	11660
27,28533	11669
27,29600	11662
27,30667	11651
27,31733	11622
27,32800	11578
27,33867	11504
27,34933	11435
27,36000	11369
27,37067	11289
27,38133	11218
27,39200	11150
27,40267	11084
27,41333	11025
27,42400	10982
27,43467	10953
27,44533	10952
27,45600	10964
27,46667	11013
27,47733	11095
27,48800	11213
27,49867	11367
27,50933	11582
27,52000	11834
27,53067	12125
27,54133	12435
27,55200	12769
27,56267	13104
27,57333	13426
27,58400	13692
27,59467	13910
27,60533	14064
27,61600	14137
27,62667	14132
27,63733	14040
27,64800	13877
27,65867	13669
27,66933	13412
27,68000	13142
27,69067	12870
27,70133	12607
27,71200	12371
27,72267	12166
27,73333	11988
27,74400	11845
27,75467	11734
27,76533	11680
27,77600	11640
27,78667	11614
27,79733	11619
27,80800	11633
27,81867	11655
27,82933	11691
27,84000	11721
27,85067	11735
27,86133	11753
27,87200	11755
27,88267	11733
27,89333	11708
27,90400	11666
27,91467	11606
27,92533	11552
27,93600	11498
27,94667	11423
27,95733	11364
27,96800	11297
27,97867	11245
27,98933	11205
28,00000	11171
28,01067	11157
28,02133	11134
28,03200	11136
28,04267	11150
28,05333	11161
28,06400	11178
28,07467	11191
28,08533	11221
28,09600	11246
28,10667	11268
28,11733	11296
28,12800	11324
28,13867	11338
28,14933	11345
28,16000	11361
28,17067	11370
28,18133	11372
28,19200	11366
28,20267	11367
28,21333	11368
28,22400	11355
28,23467	11354
28,24533	11346
28,25600	11348
28,26667	11357
28,27733	11372
28,28800	11394
28,29867	11418
28,30933	11450
28,32000	11480
28,33067	11517
28,34133	11546
28,35200	11594
28,36267	11631
28,37333	11675
28,38400	11698
28,39467	11725
28,40533	11741
28,41600	11758
28,42667	11765
28,43733	11779
28,44800	11780
28,45867	11784
28,46933	11792
28,48000	11807
28,49067	11809
28,50133	11835
28,51200	11854
28,52267	11887
28,53333	11944
28,54400	11998
28,55467	12073
28,56533	12148
28,57600	12231
28,58667	12317
28,59733	12419
28,60800	12519
28,61867	12622
28,62933	12733
28,64000	12821
28,65067	12923
28,66133	13008
28,67200	13099
28,68267	13170
28,69333	13238
28,70400	13291
28,71467	13334
28,72533	13373
28,73600	13414
28,74667	13449
28,75733	13482
28,76800	13509
28,77867	13546
28,78933	13586
28,80000	13623
28,81067	13670
28,82133	13727
28,83200	13789
28,84267	13851
28,85333	13906
28,86400	13964
28,87467	14014
28,88533	14064
28,89600	14108
28,90667	14135
28,91733	14159
28,92800	14180
28,93867	14201
28,94933	14212
28,96000	14215
28,97067	14219
28,98133	14218
28,99200	14219
29,00267	14213
29,01333	14198
29,02400	14180
29,03467	14160
29,04533	14151
29,05600	14130
29,06667	14137
29,07733	14168
29,08800	14238
29,09867	14378
29,10933	14610
29,12000	14937
29,13067	15421
29,14133	16059
29,15200	16874
29,16267	17898
29,17333	19137
29,18400	20586
29,19467	22241
29,20533	24059
29,21600	26010
29,22667	28027
29,23733	30053
29,24800	31989
29,25867	33783
29,26933	35339
29,28000	36586
29,29067	37460
29,30133	37942
29,31200	38006
29,32267	37665
29,33333	36947
29,34400	35897
29,35467	34593
29,36533	33060
29,37600	31391
29,38667	29651
29,39733	27894
29,40800	26170
29,41867	24529
29,42933	22984
29,44000	21557
29,45067	20258
29,46133	19099
29,47200	18065
29,48267	17162
29,49333	16382
29,50400	15708
29,51467	15130
29,52533	14636
29,53600	14217
29,54667	13860
29,55733	13568
29,56800	13312
29,57867	13095
29,58933	12907
29,60000	12755
29,61067	12615
29,62133	12494
29,63200	12384
29,64267	12295
29,65333	12218
29,66400	12154
29,67467	12110
29,68533	12091
29,69600	12072
29,70667	12070
29,71733	12097
29,72800	12133
29,73867	12179
29,74933	12223
29,76000	12286
29,77067	12349
29,78133	12407
29,79200	12472
29,80267	12526
29,81333	12583
29,82400	12625
29,83467	12667
29,84533	12696
29,85600	12726
29,86667	12750
29,87733	12778
29,88800	12796
29,89867	12815
29,90933	12837
29,92000	12861
29,93067	12889
29,94133	12917
29,95200	12945
29,96267	12979
29,97333	13009
29,98400	13041
29,99467	13067
30,00533	13095
30,01600	13128
30,02667	13143
30,03733	13162
30,04800	13179
30,05867	13187
30,06933	13203
30,08000	13217
30,09067	13229
30,10133	13259
30,11200	13276
30,12267	13310
30,13333	13346
30,14400	13382
30,15467	13434
30,16533	13478
30,17600	13526
30,18667	13575
30,19733	13629
30,20800	13685
30,21867	13751
30,22933	13824
30,24000	13913
30,25067	14033
30,26133	14161
30,27200	14328
30,28267	14539
30,29333	14791
30,30400	15086
30,31467	15421
30,32533	15813
30,33600	16259
30,34667	16724
30,35733	17204
30,36800	17716
30,37867	18223
30,38933	18689
30,40000	19110
30,41067	19476
30,42133	19775
30,43200	19999
30,44267	20160
30,45333	20257
30,46400	20328
30,47467	20380
30,48533	20455
30,49600	20572
30,50667	20764
30,51733	21033
30,52800	21386
30,53867	21819
30,54933	22311
30,56000	22849
30,57067	23376
30,58133	23860
30,59200	24264
30,60267	24552
30,61333	24696
30,62400	24662
30,63467	24455
30,64533	24081
30,65600	23548
30,66667	22864
30,67733	22084
30,68800	21233
30,69867	20344
30,70933	19447
30,72000	18566
30,73067	17729
30,74133	16958
30,75200	16262
30,76267	15641
30,77333	15118
30,78400	14664
30,79467	14286
30,80533	13973
30,81600	13726
30,82667	13525
30,83733	13364
30,84800	13240
30,85867	13140
30,86933	13065
30,88000	13000
30,89067	12956
30,90133	12917
30,91200	12895
30,92267	12878
30,93333	12877
30,94400	12892
30,95467	12921
30,96533	12966
30,97600	13033
30,98667	13089
30,99733	13173
31,00800	13251
31,01867	13334
31,02933	13407
31,04000	13462
31,05067	13516
31,06133	13544
31,07200	13555
31,08267	13539
31,09333	13520
31,10400	13485
31,11467	13431
31,12533	13383
31,13600	13321
31,14667	13271
31,15733	13215
31,16800	13160
31,17867	13118
31,18933	13077
31,20000	13044
31,21067	13022
31,22133	13005
31,23200	12980
31,24267	12982
31,25333	12978
31,26400	12981
31,27467	12983
31,28533	13009
31,29600	13029
31,30667	13050
31,31733	13086
31,32800	13121
31,33867	13174
31,34933	13242
31,36000	13304
31,37067	13372
31,38133	13444
31,39200	13518
31,40267	13591
31,41333	13644
31,42400	13689
31,43467	13729
31,44533	13737
31,45600	13737
31,46667	13707
31,47733	13666
31,48800	13614
31,49867	13537
31,50933	13455
31,52000	13360
31,53067	13263
31,54133	13151
31,55200	13035
31,56267	12941
31,57333	12848
31,58400	12751
31,59467	12670
31,60533	12615
31,61600	12570
31,62667	12538
31,63733	12522
31,64800	12525
31,65867	12535
31,66933	12576
31,68000	12628
31,69067	12699
31,70133	12811
31,71200	12939
31,72267	13088
31,73333	13252
31,74400	13437
31,75467	13628
31,76533	13827
31,77600	14027
31,78667	14207
31,79733	14366
31,80800	14498
31,81867	14593
31,82933	14638
31,84000	14639
31,85067	14609
31,86133	14536
31,87200	14425
31,88267	14280
31,89333	14120
31,90400	13939
31,91467	13759
31,92533	13585
31,93600	13418
31,94667	13264
31,95733	13130
31,96800	13014
31,97867	12906
31,98933	12819
32,00000	12750
32,01067	12689
32,02133	12644
32,03200	12612
32,04267	12574
32,05333	12551
32,06400	12541
32,07467	12530
32,08533	12517
32,09600	12504
32,10667	12497
32,11733	12497
32,12800	12495
32,13867	12493
32,14933	12491
32,16000	12496
32,17067	12497
32,18133	12501
32,19200	12516
32,20267	12516
32,21333	12519
32,22400	12519
32,23467	12527
32,24533	12529
32,25600	12528
32,26667	12526
32,27733	12533
32,28800	12537
32,29867	12539
32,30933	12567
32,32000	12587
32,33067	12612
32,34133	12629
32,35200	12662
32,36267	12704
32,37333	12748
32,38400	12797
32,39467	12840
32,40533	12897
32,41600	12943
32,42667	12993
32,43733	13024
32,44800	13070
32,45867	13088
32,46933	13093
32,48000	13105
32,49067	13104
32,50133	13094
32,51200	13083
32,52267	13074
32,53333	13057
32,54400	13049
32,55467	13039
32,56533	13037
32,57600	13032
32,58667	13038
32,59733	13057
32,60800	13072
32,61867	13087
32,62933	13106
32,64000	13127
32,65067	13150
32,66133	13169
32,67200	13213
32,68267	13242
32,69333	13278
32,70400	13323
32,71467	13363
32,72533	13399
32,73600	13436
32,74667	13486
32,75733	13533
32,76800	13594
32,77867	13642
32,78933	13697
32,80000	13754
32,81067	13817
32,82133	13885
32,83200	13952
32,84267	14012
32,85333	14088
32,86400	14178
32,87467	14255
32,88533	14344
32,89600	14429
32,90667	14517
32,91733	14610
32,92800	14718
32,93867	14817
32,94933	14920
32,96000	15016
32,97067	15111
32,98133	15205
32,99200	15294
33,00267	15391
33,01333	15474
33,02400	15561
33,03467	15660
33,04533	15750
33,05600	15842
33,06667	15935
33,07733	16034
33,08800	16132
33,09867	16225
33,10933	16315
33,12000	16398
33,13067	16490
33,14133	16585
33,15200	16682
33,16267	16777
33,17333	16875
33,18400	16979
33,19467	17072
33,20533	17178
33,21600	17284
33,22667	17379
33,23733	17481
33,24800	17581
33,25867	17684
33,26933	17780
33,28000	17882
33,29067	17969
33,30133	18069
33,31200	18157
33,32267	18244
33,33333	18329
33,34400	18421
33,35467	18518
33,36533	18608
33,37600	18707
33,38667	18786
33,39733	18886
33,40800	18979
33,41867	19064
33,42933	19159
33,44000	19260
33,45067	19361
33,46133	19480
33,47200	19610
33,48267	19763
33,49333	19937
33,50400	20136
33,51467	20333
33,52533	20536
33,53600	20723
33,54667	20881
33,55733	20993
33,56800	21070
33,57867	21126
33,58933	21156
33,60000	21173
33,61067	21203
33,62133	21244
33,63200	21295
33,64267	21373
33,65333	21464
33,66400	21542
33,67467	21621
33,68533	21701
33,69600	21777
33,70667	21856
33,71733	21939
33,72800	22018
33,73867	22103
33,74933	22188
33,76000	22284
33,77067	22369
33,78133	22451
33,79200	22532
33,80267	22620
33,81333	22721
33,82400	22813
33,83467	22913
33,84533	23020
33,85600	23146
33,86667	23262
33,87733	23394
33,88800	23565
33,89867	23823
33,90933	24215
33,92000	24792
33,93067	25551
33,94133	26375
33,95200	27088
33,96267	27537
33,97333	27596
33,98400	27318
33,99467	26840
34,00533	26318
34,01600	25874
34,02667	25562
34,03733	25403
34,04800	25363
34,05867	25396
34,06933	25463
34,08000	25543
34,09067	25608
34,10133	25657
34,11200	25699
34,12267	25756
34,13333	25809
34,14400	25878
34,15467	25955
34,16533	26059
34,17600	26181
34,18667	26334
34,19733	26496
34,20800	26669
34,21867	26866
34,22933	27068
34,24000	27269
34,25067	27454
34,26133	27639
34,27200	27803
34,28267	27943
34,29333	28036
34,30400	28105
34,31467	28171
34,32533	28229
34,33600	28285
34,34667	28361
34,35733	28470
34,36800	28591
34,37867	28736
34,38933	28910
34,40000	29128
34,41067	29389
34,42133	29655
34,43200	29924
34,44267	30155
34,45333	30336
34,46400	30473
34,47467	30536
34,48533	30565
34,49600	30577
34,50667	30579
34,51733	30579
34,52800	30573
34,53867	30589
34,54933	30612
34,56000	30642
34,57067	30672
34,58133	30716
34,59200	30787
34,60267	30853
34,61333	30939
34,62400	31014
34,63467	31087
34,64533	31166
34,65600	31234
34,66667	31296
34,67733	31360
34,68800	31424
34,69867	31491
34,70933	31555
34,72000	31618
34,73067	31682
34,74133	31776
34,75200	31862
34,76267	31982
34,77333	32119
34,78400	32279
34,79467	32437
34,80533	32579
34,81600	32723
34,82667	32869
34,83733	33026
34,84800	33180
34,85867	33317
34,86933	33424
34,88000	33493
34,89067	33555
34,90133	33624
34,91200	33698
34,92267	33773
34,93333	33877
34,94400	34015
34,95467	34234
34,96533	34730
34,97600	36136
34,98667	39633
34,99733	46832
35,00800	59003
35,01867	76692
35,02933	98740
35,04000	121606
35,05067	138951
35,06133	144925
35,07200	138448
35,08267	123715
35,09333	106732
35,10400	91587
35,11467	79720
35,12533	71015
35,13600	64807
35,14667	60537
35,15733	57680
35,16800	55774
35,17867	54319
35,18933	53015
35,20000	51722
35,21067	50500
35,22133	49430
35,23200	48541
35,24267	47792
35,25333	47167
35,26400	46654
35,27467	46220
35,28533	45833
35,29600	45477
35,30667	45161
35,31733	44885
35,32800	44663
35,33867	44512
35,34933	44377
35,36000	44143
35,37067	43741
35,38133	43221
35,39200	42730
35,40267	42432
35,41333	42437
35,42400	43023
35,43467	44467
35,44533	46799
35,45600	49429
35,46667	51452
35,47733	52284
35,48800	51991
35,49867	51001
35,50933	49653
35,52000	48148
35,53067	46698
35,54133	45671
35,55200	45378
35,56267	45821
35,57333	46558
35,58400	46990
35,59467	46724
35,60533	45923
35,61600	44931
35,62667	44031
35,63733	43286
35,64800	42709
35,65867	42263
35,66933	41925
35,68000	41672
35,69067	41498
35,70133	41388
35,71200	41325
35,72267	41301
35,73333	41296
35,74400	41322
35,75467	41375
35,76533	41484
35,77600	41673
35,78667	41983
35,79733	42454
35,80800	43054
35,81867	43649
35,82933	44054
35,84000	44182
35,85067	44123
35,86133	43972
35,87200	43797
35,88267	43547
35,89333	43229
35,90400	42864
35,91467	42474
35,92533	42120
35,93600	41843
35,94667	41629
35,95733	41479
35,96800	41395
35,97867	41383
35,98933	41435
36,00000	41541
36,01067	41659
36,02133	41751
36,03200	41778
36,04267	41743
36,05333	41662
36,06400	41565
36,07467	41482
36,08533	41451
36,09600	41467
36,10667	41499
36,11733	41563
36,12800	41663
36,13867	41782
36,14933	41936
36,16000	42107
36,17067	42293
36,18133	42460
36,19200	42615
36,20267	42744
36,21333	42866
36,22400	42999
36,23467	43084
36,24533	43083
36,25600	43021
36,26667	42950
36,27733	42957
36,28800	43149
36,29867	43530
36,30933	43980
36,32000	44314
36,33067	44373
36,34133	44162
36,35200	43815
36,36267	43448
36,37333	43154
36,38400	42930
36,39467	42755
36,40533	42595
36,41600	42461
36,42667	42341
36,43733	42248
36,44800	42169
36,45867	42112
36,46933	42081
36,48000	42054
36,49067	42038
36,50133	42034
36,51200	42032
36,52267	42041
36,53333	42042
36,54400	42049
36,55467	42058
36,56533	42060
36,57600	42072
36,58667	42069
36,59733	42073
36,60800	42073
36,61867	42067
36,62933	42087
36,64000	42112
36,65067	42153
36,66133	42197
36,67200	42248
36,68267	42309
36,69333	42359
36,70400	42409
36,71467	42443
36,72533	42477
36,73600	42541
36,74667	42619
36,75733	42700
36,76800	42767
36,77867	42788
36,78933	42744
36,80000	42660
36,81067	42544
36,82133	42430
36,83200	42332
36,84267	42258
36,85333	42209
36,86400	42186
36,87467	42168
36,88533	42158
36,89600	42157
36,90667	42150
36,91733	42151
36,92800	42147
36,93867	42157
36,94933	42176
36,96000	42212
36,97067	42296
36,98133	42437
36,99200	42626
37,00267	42866
37,01333	43118
37,02400	43330
37,03467	43451
37,04533	43450
37,05600	43334
37,06667	43139
37,07733	42914
37,08800	42700
37,09867	42506
37,10933	42367
37,12000	42274
37,13067	42207
37,14133	42168
37,15200	42154
37,16267	42180
37,17333	42230
37,18400	42318
37,19467	42410
37,20533	42503
37,21600	42581
37,22667	42592
37,23733	42548
37,24800	42482
37,25867	42388
37,26933	42306
37,28000	42235
37,29067	42185
37,30133	42150
37,31200	42116
37,32267	42099
37,33333	42079
37,34400	42068
37,35467	42058
37,36533	42047
37,37600	42044
37,38667	42047
37,39733	42040
37,40800	42041
37,41867	42052
37,42933	42056
37,44000	42050
37,45067	42057
37,46133	42054
37,47200	42065
37,48267	42077
37,49333	42089
37,50400	42101
37,51467	42105
37,52533	42107
37,53600	42100
37,54667	42092
37,55733	42093
37,56800	42087
37,57867	42090
37,58933	42090
37,60000	42088
37,61067	42099
37,62133	42104
37,63200	42118
37,64267	42130
37,65333	42147
37,66400	42163
37,67467	42177
37,68533	42193
37,69600	42209
37,70667	42222
37,71733	42237
37,72800	42244
37,73867	42252
37,74933	42266
37,76000	42283
37,77067	42293
37,78133	42302
37,79200	42307
37,80267	42305
37,81333	42299
37,82400	42302
37,83467	42321
37,84533	42352
37,85600	42398
37,86667	42456
37,87733	42539
37,88800	42611
37,89867	42677
37,90933	42713
37,92000	42728
37,93067	42730
37,94133	42691
37,95200	42642
37,96267	42579
37,97333	42509
37,98400	42431
37,99467	42370
38,00533	42327
38,01600	42274
38,02667	42249
38,03733	42221
38,04800	42211
38,05867	42195
38,06933	42198
38,08000	42188
38,09067	42183
38,10133	42188
38,11200	42186
38,12267	42191
38,13333	42189
38,14400	42191
38,15467	42194
38,16533	42201
38,17600	42198
38,18667	42194
38,19733	42204
38,20800	42215
38,21867	42219
38,22933	42230
38,24000	42235
38,25067	42252
38,26133	42256
38,27200	42252
38,28267	42256
38,29333	42248
38,30400	42253
38,31467	42241
38,32533	42235
38,33600	42236
38,34667	42238
38,35733	42224
38,36800	42222
38,37867	42217
38,38933	42219
38,40000	42221
38,41067	42225
38,42133	42230
38,43200	42236
38,44267	42239
38,45333	42235
38,46400	42238
38,47467	42243
38,48533	42254
38,49600	42258
38,50667	42260
38,51733	42266
38,52800	42276
38,53867	42285
38,54933	42284
38,56000	42290
38,57067	42294
38,58133	42300
38,59200	42310
38,60267	42304
38,61333	42309
38,62400	42316
38,63467	42318
38,64533	42324
38,65600	42338
38,66667	42352
38,67733	42371
38,68800	42387
38,69867	42406
38,70933	42413
38,72000	42443
38,73067	42480
38,74133	42536
38,75200	42615
38,76267	42758
38,77333	43000
38,78400	43391
38,79467	44006
38,80533	44928
38,81600	46281
38,82667	48164
38,83733	50648
38,84800	53752
38,85867	57360
38,86933	61259
38,88000	65089
38,89067	68419
38,90133	70803
38,91200	71903
38,92267	71546
38,93333	69814
38,94400	66975
38,95467	63439
38,96533	59655
38,97600	56019
38,98667	52794
38,99733	50135
39,00800	48071
39,01867	46546
39,02933	45456
39,04000	44691
39,05067	44161
39,06133	43786
39,07200	43510
39,08267	43305
39,09333	43132
39,10400	42978
39,11467	42839
39,12533	42703
39,13600	42579
39,14667	42452
39,15733	42328
39,16800	42191
39,17867	42054
39,18933	41913
39,20000	41757
39,21067	41605
39,22133	41434
39,23200	41274
39,24267	41092
39,25333	40914
39,26400	40723
39,27467	40521
39,28533	40323
39,29600	40116
39,30667	39892
39,31733	39665
39,32800	39455
39,33867	39226
39,34933	38998
39,36000	38756
39,37067	38528
39,38133	38321
39,39200	38106
39,40267	37876
39,41333	37655
39,42400	37460
39,43467	37263
39,44533	37061
39,45600	36863
39,46667	36675
39,47733	36480
39,48800	36259
39,49867	36012
39,50933	35740
39,52000	35455
39,53067	35125
39,54133	34772
39,55200	34426
39,56267	34099
39,57333	33765
39,58400	33425
39,59467	33032
39,60533	32556
39,61600	31977
39,62667	31283
39,63733	30493
39,64800	29576
39,65867	28562
39,66933	27477
39,68000	26359
39,69067	25208
39,70133	24048
39,71200	22847
39,72267	21630
39,73333	20422
39,74400	19205
39,75467	18008
39,76533	16858
39,77600	15782
39,78667	14751
39,79733	13777
39,80800	12854
39,81867	12006
39,82933	11210
39,84000	10471
39,85067	9794
39,86133	9166
39,87200	8589
39,88267	8064
39,89333	7580
39,90400	7129
39,91467	6717
39,92533	6349
39,93600	5993
39,94667	5680
39,95733	5390
39,96800	5115
39,97867	4867
39,98933	4633
40,00000	4417
40,01067	4214
40,02133	4032
40,03200	3857
40,04267	3690
40,05333	3542
40,06400	3399
40,07467	3262
40,08533	3130
40,09600	3010
40,10667	2900
40,11733	2801
40,12800	2698
40,13867	2598
40,14933	2511
40,16000	2415
40,17067	2328
40,18133	2245
40,19200	2174
40,20267	2104
40,21333	2028
40,22400	1962
40,23467	1890
40,24533	1825
40,25600	1766
40,26667	1703
40,27733	1657
40,28800	1603
40,29867	1549
40,30933	1492
40,32000	1455
40,33067	1414
40,34133	1360
40,35200	1315
40,36267	1271
40,37333	1225
40,38400	1186
40,39467	1151
40,40533	1114
40,41600	1078
40,42667	1031
40,43733	991
40,44800	950
40,45867	915
40,46933	870
40,48000	846
40,49067	805
40,50133	766
40,51200	738
40,52267	709
40,53333	678
40,54400	642
40,55467	610
40,56533	587
40,57600	562
40,58667	536
40,59733	509
40,60800	483
40,61867	461
40,62933	425
40,64000	403
40,65067	385
40,66133	368
40,67200	337
40,68267	315
40,69333	287
40,70400	264
40,71467	244
40,72533	226
40,73600	204
40,74667	183
40,75733	163
40,76800	148
40,77867	112
40,78933	98
40,80000	77
40,81067	72
40,82133	48
40,83200	27
40,84267	6
40,85333	-11
40,86400	-27
40,87467	-46
40,88533	-58
40,89600	-67
40,90667	-79
40,91733	-98
40,92800	-110
40,93867	-127
40,94933	-138
40,96000	-144
40,97067	-151
40,98133	-156
40,99200	-173
41,00267	-180
41,01333	-188
41,02400	-206
41,03467	-211
41,04533	-216
41,05600	-229
41,06667	-232
41,07733	-243
41,08800	-245
41,09867	-246
41,10933	-254
41,12000	-264
41,13067	-270
41,14133	-276
41,15200	-280
41,16267	-286
41,17333	-301
41,18400	-292
41,19467	-299
41,20533	-310
41,21600	-315
41,22667	-320
41,23733	-324
41,24800	-329
41,25867	-342
41,26933	-340
41,28000	-342
41,29067	-351
41,30133	-348
41,31200	-348
41,32267	-356
41,33333	-348
41,34400	-343
41,35467	-354
41,36533	-352
41,37600	-357
41,38667	-350
41,39733	-351
41,40800	-344
41,41867	-347
41,42933	-340
41,44000	-341
41,45067	-342
41,46133	-331
41,47200	-326
41,48267	-325
41,49333	-324
41,50400	-319
41,51467	-315
41,52533	-307
41,53600	-303
41,54667	-297
41,55733	-287
41,56800	-285
41,57867	-273
41,58933	-268
41,60000	-260
41,61067	-252
41,62133	-249
41,63200	-239
41,64267	-230
41,65333	-214
41,66400	-210
41,67467	-205
41,68533	-189
41,69600	-183
41,70667	-171
41,71733	-164
41,72800	-166
41,73867	-164
41,74933	-150
41,76000	-141
41,77067	-128
41,78133	-126
41,79200	-106
41,80267	-106
41,81333	-96
41,82400	-94
41,83467	-89
41,84533	-71
41,85600	-65
41,86667	-54
41,87733	-51
41,88800	-51
41,89867	-45
41,90933	-40
41,92000	-29
41,93067	-11
41,94133	-9
41,95200	-15
41,96267	3
41,97333	12
41,98400	14
41,99467	15
42,00533	24
42,01600	31
42,02667	39
42,03733	41
42,04800	43
42,05867	55
42,06933	53
42,08000	59
42,09067	57
42,10133	61
42,11200	68
42,12267	73
42,13333	74
42,14400	79
42,15467	84
42,16533	85
42,17600	90
42,18667	87
42,19733	89
42,20800	93
42,21867	94
42,22933	98
42,24000	96
42,25067	103
42,26133	105
42,27200	109
42,28267	110
42,29333	106
42,30400	109
42,31467	110
42,32533	111
42,33600	113
42,34667	105
42,35733	116
42,36800	117
42,37867	108
42,38933	111
42,40000	106
42,41067	118
42,42133	122
42,43200	114
42,44267	117
42,45333	118
42,46400	122
42,47467	118
42,48533	126
42,49600	128
42,50667	127
42,51733	125
42,52800	127
42,53867	131
42,54933	129
42,56000	129
42,57067	133
42,58133	130
42,59200	130
42,60267	130
42,61333	128
42,62400	127
42,63467	125
42,64533	130
42,65600	130
42,66667	126
42,67733	126
42,68800	128
42,69867	129
42,70933	134
42,72000	122
42,73067	122
42,74133	126
42,75200	123
42,76267	125
42,77333	128
42,78400	126
42,79467	131
42,80533	120
42,81600	118
42,82667	123
42,83733	124
42,84800	123
42,85867	127
42,86933	127
42,88000	122
42,89067	119
42,90133	123
42,91200	116
42,92267	113
42,93333	108
42,94400	120
42,95467	121
42,96533	117
42,97600	116
42,98667	118
42,99733	122
43,00800	125
43,01867	119
43,02933	118
43,04000	113
43,05067	117
43,06133	126
43,07200	115
43,08267	118
43,09333	116
43,10400	120
43,11467	120
43,12533	109
43,13600	110
43,14667	123
43,15733	114
43,16800	116
43,17867	121
43,18933	122
43,20000	116
43,21067	117
43,22133	113
43,23200	112
43,24267	115
43,25333	119
43,26400	116
43,27467	119
43,28533	117
43,29600	117
43,30667	119
43,31733	118
43,32800	111
43,33867	115
43,34933	114
43,36000	119
43,37067	119
43,38133	121
43,39200	124
43,40267	117
43,41333	124
43,42400	115
43,43467	109
43,44533	122
43,45600	127
43,46667	117
43,47733	112
43,48800	125
43,49867	118
43,50933	118
43,52000	118
43,53067	112
43,54133	117
43,55200	121
43,56267	124
43,57333	124
43,58400	114
43,59467	122
43,60533	116
43,61600	116
43,62667	119
43,63733	120
43,64800	121
43,65867	126
43,66933	120
43,68000	113
43,69067	121
43,70133	123
43,71200	119
43,72267	122
43,73333	129
43,74400	115
43,75467	119
43,76533	112
43,77600	117
43,78667	116
43,79733	116
43,80800	121
43,81867	122
43,82933	117
43,84000	112
43,85067	119
43,86133	118
43,87200	115
43,88267	113
43,89333	121
43,90400	116
43,91467	109
43,92533	107
43,93600	108
43,94667	105
43,95733	102
43,96800	103
43,97867	111
43,98933	114
44,00000	108
44,01067	113
44,02133	105
44,03200	103
44,04267	94
44,05333	101
44,06400	108
44,07467	121
44,08533	114
44,09600	111
44,10667	113
44,11733	107
44,12800	110
44,13867	106
44,14933	109
44,16000	109
44,17067	114
44,18133	114
44,19200	104
44,20267	107
44,21333	108
44,22400	106
44,23467	110
44,24533	109
44,25600	103
44,26667	108
44,27733	105
44,28800	103
44,29867	97
44,30933	103
44,32000	101
44,33067	102
44,34133	105
44,35200	95
44,36267	96
44,37333	99
44,38400	105
44,39467	114
44,40533	103
44,41600	103
44,42667	103
44,43733	106
44,44800	107
44,45867	109
44,46933	106
44,48000	98
44,49067	101
44,50133	106
44,51200	98
44,52267	97
44,53333	104
44,54400	96
44,55467	97
44,56533	94
44,57600	107
44,58667	111
44,59733	104
44,60800	103
44,61867	102
44,62933	104
44,64000	99
44,65067	104
44,66133	103
44,67200	104
44,68267	102
44,69333	107
44,70400	100
44,71467	107
44,72533	104
44,73600	101
44,74667	99
44,75733	93
44,76800	104
44,77867	107
44,78933	103
44,80000	96
44,81067	101
44,82133	99
44,83200	104
44,84267	101
44,85333	97
44,86400	95
44,87467	96
44,88533	101
44,89600	92
44,90667	96
44,91733	93
44,92800	88
44,93867	87
44,94933	90
44,96000	89
44,97067	90
44,98133	94
44,99200	91
45,00267	91
45,01333	95
45,02400	98
45,03467	94
45,04533	94
45,05600	92
45,06667	87
45,07733	86
45,08800	91
45,09867	88
45,10933	92
45,12000	86
45,13067	91
45,14133	87
45,15200	81
45,16267	87
45,17333	92
45,18400	89
45,19467	85
45,20533	91
45,21600	85
45,22667	88
45,23733	85
45,24800	90
45,25867	85
45,26933	89
45,28000	86
45,29067	88
45,30133	85
45,31200	88
45,32267	88
45,33333	93
45,34400	92
45,35467	99
45,36533	97
45,37600	91
45,38667	93
45,39733	91
45,40800	91
45,41867	96
45,42933	89
45,44000	95
45,45067	93
45,46133	93
45,47200	94
45,48267	89
45,49333	90
45,50400	90
45,51467	87
45,52533	91
45,53600	98
45,54667	96
45,55733	96
45,56800	105
45,57867	103
45,58933	103
45,60000	99
45,61067	96
45,62133	96
45,63200	102
45,64267	107
45,65333	102
45,66400	93
45,67467	98
45,68533	102
45,69600	107
45,70667	101
45,71733	104
45,72800	107
45,73867	94
45,74933	96
45,76000	107
45,77067	100
45,78133	92
45,79200	96
45,80267	102
45,81333	105
45,82400	112
45,83467	109
45,84533	109
45,85600	108
45,86667	115
45,87733	107
45,88800	108
45,89867	101
45,90933	99
45,92000	95
45,93067	97
45,94133	111
45,95200	98
45,96267	104
45,97333	109
45,98400	107
45,99467	99
46,00533	95
46,01600	98
46,02667	102
46,03733	106
46,04800	108
46,05867	112
46,06933	105
46,08000	106
46,09067	103
46,10133	101
46,11200	99
46,12267	100
46,13333	103
46,14400	104
46,15467	99
46,16533	92
46,17600	96
46,18667	104
46,19733	104
46,20800	100
46,21867	98
46,22933	99
46,24000	102
46,25067	94
46,26133	94
46,27200	99
46,28267	98
46,29333	96
46,30400	100
46,31467	105
46,32533	97
46,33600	102
46,34667	103
46,35733	100
46,36800	101
46,37867	100
46,38933	102
46,40000	103
46,41067	100
46,42133	102
46,43200	102
46,44267	101
46,45333	100
46,46400	98
46,47467	100
46,48533	101
46,49600	104
46,50667	106
46,51733	106
46,52800	102
46,53867	101
46,54933	100
46,56000	97
46,57067	106
46,58133	105
46,59200	102
46,60267	103
46,61333	94
46,62400	96
46,63467	100
46,64533	108
46,65600	103
46,66667	103
46,67733	102
46,68800	95
46,69867	106
46,70933	102
46,72000	103
46,73067	102
46,74133	92
46,75200	99
46,76267	98
46,77333	96
46,78400	101
46,79467	102
46,80533	97
46,81600	96
46,82667	90
46,83733	99
46,84800	99
46,85867	98
46,86933	97
46,88000	100
46,89067	100
46,90133	95
46,91200	84
46,92267	89
46,93333	89
46,94400	92
46,95467	95
46,96533	97
46,97600	91
46,98667	95
46,99733	87
47,00800	90
47,01867	93
47,02933	89
47,04000	91
47,05067	88
47,06133	88
47,07200	87
47,08267	92
47,09333	94
47,10400	90
47,11467	87
47,12533	93
47,13600	83
47,14667	88
47,15733	90
47,16800	89
47,17867	94
47,18933	90
47,20000	90
47,21067	90
47,22133	95
47,23200	90
47,24267	96
47,25333	90
47,26400	94
47,27467	92
47,28533	86
47,29600	86
47,30667	84
47,31733	81
47,32800	87
47,33867	83
47,34933	81
47,36000	78
47,37067	80
47,38133	84
47,39200	76
47,40267	78
47,41333	82
47,42400	82
47,43467	86
47,44533	87
47,45600	87
47,46667	85
47,47733	84
47,48800	84
47,49867	85
47,50933	91
47,52000	95
47,53067	90
47,54133	90
47,55200	90
47,56267	82
47,57333	81
47,58400	81
47,59467	86
47,60533	88
47,61600	85
47,62667	86
47,63733	82
47,64800	86
47,65867	79
47,66933	75
47,68000	82
47,69067	77
47,70133	84
47,71200	86
47,72267	92
47,73333	94
47,74400	91
47,75467	90
47,76533	91
47,77600	92
47,78667	88
47,79733	93
47,80800	93
47,81867	89
47,82933	83
47,84000	78
47,85067	85
47,86133	89
47,87200	91
47,88267	86
47,89333	81
47,90400	84
47,91467	90
47,92533	95
47,93600	87
47,94667	93
47,95733	93
47,96800	87
47,97867	82
47,98933	83
48,00000	79
48,01067	84
48,02133	85
48,03200	77
48,04267	76
48,05333	87
48,06400	88
48,07467	88
48,08533	84
48,09600	87
48,10667	84
48,11733	77
48,12800	78
48,13867	75
48,14933	77
48,16000	82
48,17067	86
48,18133	86
48,19200	80
48,20267	79
48,21333	79
48,22400	79
48,23467	80
48,24533	78
48,25600	75
48,26667	76
48,27733	80
48,28800	75
48,29867	72
48,30933	72
48,32000	72
48,33067	82
48,34133	79
48,35200	77
48,36267	79
48,37333	82
48,38400	80
48,39467	74
48,40533	73
48,41600	75
48,42667	75
48,43733	75
48,44800	78
48,45867	85
48,46933	87
48,48000	85
48,49067	85
48,50133	74
48,51200	74
48,52267	83
48,53333	87
48,54400	78
48,55467	70
48,56533	71
48,57600	76
48,58667	80
48,59733	70
48,60800	73
48,61867	80
48,62933	77
48,64000	76
48,65067	76
48,66133	76
48,67200	77
48,68267	83
48,69333	80
48,70400	71
48,71467	70
48,72533	68
48,73600	62
48,74667	72
48,75733	68
48,76800	64
48,77867	66
48,78933	66
48,80000	65
48,81067	67
48,82133	63
48,83200	64
48,84267	62
48,85333	62
48,86400	60
48,87467	61
48,88533	59
48,89600	64
48,90667	65
48,91733	64
48,92800	56
48,93867	55
48,94933	48
48,96000	53
48,97067	45
48,98133	53
48,99200	52
49,00267	56
49,01333	49
49,02400	46
49,03467	53
49,04533	52
49,05600	50
49,06667	46
49,07733	43
49,08800	49
49,09867	44
49,10933	46
49,12000	51
49,13067	58
49,14133	52
49,15200	49
49,16267	49
49,17333	47
49,18400	45
49,19467	60
49,20533	51
49,21600	51
49,22667	50
49,23733	47
49,24800	53
49,25867	54
49,26933	52
49,28000	46
49,29067	53
49,30133	54
49,31200	54
49,32267	51
49,33333	51
49,34400	48
49,35467	48
49,36533	49
49,37600	39
49,38667	40
49,39733	44
49,40800	49
49,41867	53
49,42933	46
49,44000	38
49,45067	38
49,46133	35
49,47200	38
49,48267	44
49,49333	49
49,50400	44
49,51467	41
49,52533	36
49,53600	32
49,54667	35
49,55733	33
49,56800	36
49,57867	30
49,58933	40
49,60000	34
49,61067	30
49,62133	32
49,63200	30
49,64267	31
49,65333	33
49,66400	29
49,67467	27
49,68533	26
49,69600	33
49,70667	20
49,71733	21
49,72800	27
49,73867	28
49,74933	31
49,76000	28
49,77067	33
49,78133	26
49,79200	28
49,80267	20
49,81333	19
49,82400	12
49,83467	17
49,84533	23
49,85600	18
49,86667	21
49,87733	18
49,88800	21
49,89867	22
49,90933	22
49,92000	24
49,93067	23
49,94133	26
49,95200	17
49,96267	24
49,97333	22
49,98400	19
49,99467	23
50,00533	22


