[Header]
Application Name	LabSolutions
Version	5.73
Data File Name	C:\Users\Public\DADOS\Ricardo borges\RMBorges\26.02.25\CHA VERDE 2.lcd
Output Date	27/02/2025
Output Time	04:44:56

[File Information]
Type	Data File
Generated	27/02/2025 03:54:28
Generated by	System Administrator
Modified	27/02/2025 04:44:55
Modified by	System Administrator

[Sample Information]
Operator Name	System Administrator
Acquired	27/02/2025 03:54:53
Sample Type	0:Unknown
Level	0
Sample Name	CHA VERDE 2
Sample ID	CHA VERDE 2
ISTD Amount1	1
ISTD Amount2	1
ISTD Amount3	1
ISTD Amount4	1
ISTD Amount5	1
ISTD Amount6	1
ISTD Amount7	1
ISTD Amount8	1
ISTD Amount9	1
ISTD Amount10	1
ISTD Amount11	1
ISTD Amount12	1
ISTD Amount13	1
ISTD Amount14	1
ISTD Amount15	1
ISTD Amount16	1
ISTD Amount17	1
ISTD Amount18	1
ISTD Amount19	1
ISTD Amount20	1
ISTD Amount21	1
ISTD Amount22	1
ISTD Amount23	1
ISTD Amount24	1
ISTD Amount25	1
ISTD Amount26	1
ISTD Amount27	1
ISTD Amount28	1
ISTD Amount29	1
ISTD Amount30	1
ISTD Amount31	1
ISTD Amount32	1
Sample Amount	1
Dilution Factor	1
Vial#	24
Injection Volume	10

[Original Files]
Data File	C:\Users\Public\DADOS\Ricardo borges\RMBorges\26.02.25\CHA VERDE 2.lcd
Method File	C:\Users\Public\MÉTODOS\MÉTODOS HPLC AUTOMÁTICO\RICARDO BORGES\RMBorges\sciffee\experimental 1 - pool.lcm
Batch File	C:\Users\Public\DADOS\Ricardo borges\RMBorges\26.02.25\BATCH_RM_MIX POOL_26.02.2025.lcb
Report Format File	C:\LabSolutions\System\Default.lsr

[File Description]


[Configuration]
Instrument Name	HPLC analítico (automático)
Instrument #	1
Line #	1
# of Detectors	1
Detector ID	PDA
Detector Name	PDA
# of Channels	1

[Peak Table(PDA-Ch1)]
# of Peaks	86
Peak#	R.Time	I.Time	F.Time	Area	Height	A/H	Conc.	Mark	ID#	Name	k'	Plate #	Plate Ht.	Tailing	Resolution	Sep.Factor	Area Ratio	Height Ratio	Conc. %	Norm Conc.
1	1,541	1,280	1,696	888493	71540	12,420	0,000	   			0,000	205	729,947	0,000	0,000	0,000	0	0	0,000	0,000
2	1,752	1,696	1,995	554314	66683	8,313	0,000	 V 			0,137	1247	120,336	0,000	0,670	0,000	0	0	0,000	0,000
3	2,087	1,995	2,219	580611	77355	7,506	0,000	 V 			0,354	1437	104,404	0,000	1,602	2,594	0	0	0,000	0,000
4	2,303	2,219	2,549	479575	41252	11,626	0,000	 V 			0,494	643	233,116	0,000	0,739	1,395	0	0	0,000	0,000
5	2,638	2,549	2,720	145105	15607	9,298	0,000	 V 			0,712	113	1325,059	0,000	0,495	1,440	0	0	0,000	0,000
6	2,781	2,720	2,965	173340	15334	11,304	0,000	 V 			0,805	146	1025,252	0,000	0,150	1,131	0	0	0,000	0,000
7	3,025	2,965	3,093	59573	7920	7,522	0,000	 V 			0,963	22	6747,245	0,000	0,140	1,197	0	0	0,000	0,000
8	3,277	3,093	3,584	3825921	460873	8,301	0,000	 V 			1,126	3342	44,886	1,289	0,180	1,169	0	0	0,000	0,000
9	3,688	3,584	3,915	186132	11480	16,214	0,000	 V 			1,393	233	642,462	0,000	0,690	1,237	0	0	0,000	0,000
10	4,347	3,915	5,003	1015831	61768	16,446	0,000	SV 			1,821	2842	52,780	0,000	1,021	1,307	0	0	0,000	0,000
11	4,874	4,757	4,971	3249	449	7,234	0,000	T  			2,163	9626	15,583	0,928	2,007	1,188	0	0	0,000	0,000
12	5,257	5,003	5,429	113122	5074	22,295	0,000	 V 			2,411	293	511,094	0,000	0,537	1,115	0	0	0,000	0,000
13	5,494	5,429	5,611	37179	3569	10,418	0,000	 V 			2,565	49	3053,499	0,000	0,109	1,064	0	0	0,000	0,000
14	6,049	5,611	6,123	156982	7512	20,898	0,000	 V 			2,925	124	1212,549	0,000	0,209	1,140	0	0	0,000	0,000
15	6,406	6,123	6,624	599145	42767	14,010	0,000	 V 			3,156	5413	27,709	0,000	0,283	1,079	0	0	0,000	0,000
16	6,818	6,624	7,573	2397457	134298	17,852	0,000	 V 			3,424	4808	31,200	0,000	1,112	1,085	0	0	0,000	0,000
17	7,753	7,573	7,925	180006	11147	16,149	0,000	 V 			4,030	2826	53,081	0,000	1,913	1,177	0	0	0,000	0,000
18	8,134	7,925	8,299	446295	33174	13,453	0,000	 V 			4,278	7043	21,298	0,000	0,786	1,061	0	0	0,000	0,000
19	8,494	8,299	8,789	3674112	315685	11,639	0,000	 V 			4,511	11839	12,670	0,000	1,028	1,055	0	0	0,000	0,000
20	8,910	8,789	9,301	505906	28628	17,672	0,000	 V 			4,781	3647	41,135	0,000	0,921	1,060	0	0	0,000	0,000
21	9,522	9,301	9,813	1475968	135114	10,924	0,000	 V 			5,178	18815	7,972	0,000	1,411	1,083	0	0	0,000	0,000
22	10,000	9,813	10,165	421455	30203	13,954	0,000	 V 			5,489	9496	15,797	0,000	1,391	1,060	0	0	0,000	0,000
23	10,291	10,165	10,613	338686	17809	19,018	0,000	 V 			5,677	5006	29,962	0,000	0,586	1,034	0	0	0,000	0,000
24	10,645	10,613	10,773	85052	9257	9,188	0,000	 V 			5,907	13	11119,637	0,000	0,058	1,040	0	0	0,000	0,000
25	11,120	10,773	11,435	1765231	138014	12,790	0,000	 V 			6,215	19470	7,704	0,000	0,080	1,052	0	0	0,000	0,000
26	11,645	11,435	11,829	340451	19492	17,467	0,000	 V 			6,556	5774	25,977	0,000	1,127	1,055	0	0	0,000	0,000
27	12,064	11,829	12,565	17081210	1420556	12,024	0,000	 V 			6,828	22000	6,818	1,425	0,893	1,041	0	0	0,000	0,000
28	12,745	12,565	12,917	892449	79842	11,178	0,000	 V 			7,270	27233	5,508	0,000	2,147	1,065	0	0	0,000	0,000
29	13,065	12,917	15,755	18041537	885727	20,369	0,000	SV 			7,477	11377	13,184	3,157	0,801	1,029	0	0	0,000	0,000
30	13,814	13,707	13,984	163584	21156	7,732	0,000	T  			7,963	58931	2,545	1,208	2,087	1,065	0	0	0,000	0,000
31	14,356	14,208	14,741	141588	11835	11,964	0,000	T  			8,315	44448	3,375	1,832	2,170	1,044	0	0	0,000	0,000
32	15,116	14,763	15,307	395160	36099	10,947	0,000	T  			8,808	43431	3,454	0,000	2,701	1,059	0	0	0,000	0,000
33	15,407	15,307	15,744	93635	6902	13,567	0,000	TV 			8,997	20839	7,198	0,000	0,812	1,021	0	0	0,000	0,000
34	16,050	15,755	16,779	4500172	392940	11,453	0,000	SV 			9,414	48749	3,077	1,291	1,791	1,046	0	0	0,000	0,000
35	16,712	16,597	16,779	3542	579	6,119	0,000	T  			9,843	166515	0,901	0,818	2,914	1,046	0	0	0,000	0,000
36	16,976	16,779	17,195	505598	39106	12,929	0,000	 V 			10,014	39713	3,777	0,000	1,045	1,017	0	0	0,000	0,000
37	17,380	17,195	17,739	422370	20343	20,762	0,000	 V 			10,277	16812	8,922	0,000	0,924	1,026	0	0	0,000	0,000
38	17,899	17,739	18,133	260742	16360	15,937	0,000	 V 			10,614	24601	6,097	0,000	1,046	1,033	0	0	0,000	0,000
39	18,293	18,133	18,443	155998	9313	16,751	0,000	 V 			10,870	4047	37,062	0,000	0,490	1,024	0	0	0,000	0,000
40	18,788	18,443	19,040	1869442	128440	14,555	0,000	 V 			11,191	40411	3,712	0,000	0,649	1,030	0	0	0,000	0,000
41	19,126	19,040	19,285	172792	12961	13,332	0,000	 V 			11,410	3925	38,213	0,000	0,423	1,020	0	0	0,000	0,000
42	19,379	19,285	19,509	137612	10454	13,164	0,000	 V 			11,574	332	451,573	0,000	0,092	1,014	0	0	0,000	0,000
43	19,651	19,509	19,755	186889	15059	12,411	0,000	 V 			11,750	13296	11,281	0,000	0,110	1,015	0	0	0,000	0,000
44	19,851	19,755	20,192	237878	13744	17,307	0,000	 V 			11,880	9542	15,719	0,000	0,268	1,011	0	0	0,000	0,000
45	20,392	20,192	20,533	301620	23126	13,042	0,000	 V 			12,231	42482	3,531	0,000	0,895	1,030	0	0	0,000	0,000
46	20,660	20,533	21,088	365689	19988	18,296	0,000	 V 			12,405	29922	5,013	0,000	0,612	1,014	0	0	0,000	0,000
47	21,346	21,088	21,419	606677	57778	10,500	0,000	 V 			12,850	22758	6,591	0,000	1,315	1,036	0	0	0,000	0,000
48	21,590	21,419	21,909	2882353	243196	11,852	0,000	 V 			13,009	71420	2,100	0,000	0,549	1,012	0	0	0,000	0,000
49	22,106	21,909	22,272	260288	18347	14,187	0,000	 V 			13,343	44185	3,395	0,000	1,386	1,026	0	0	0,000	0,000
50	22,337	22,272	22,528	120247	9293	12,940	0,000	 V 			13,493	3262	45,989	0,000	0,233	1,011	0	0	0,000	0,000
51	22,690	22,528	22,923	173118	10346	16,732	0,000	 V 			13,722	28298	5,301	0,000	0,336	1,017	0	0	0,000	0,000
52	23,102	22,923	23,189	143017	11841	12,078	0,000	 V 			13,990	13128	11,426	0,000	0,612	1,019	0	0	0,000	0,000
53	23,379	23,189	23,488	305217	21606	14,126	0,000	 V 			14,169	20694	7,249	0,000	0,379	1,013	0	0	0,000	0,000
54	23,577	23,488	23,840	266350	19991	13,323	0,000	 V 			14,298	19022	7,886	0,000	0,298	1,009	0	0	0,000	0,000
55	24,092	23,840	24,544	1419176	103158	13,757	0,000	 V 			14,632	71908	2,086	0,000	0,986	1,023	0	0	0,000	0,000
56	24,680	24,544	24,811	45186	3114	14,512	0,000	 V 			15,013	7894	19,002	0,000	0,800	1,026	0	0	0,000	0,000
57	24,913	24,811	24,992	28978	2794	10,371	0,000	 V 			15,165	4881	30,733	0,000	0,184	1,010	0	0	0,000	0,000
58	25,162	24,992	25,376	82379	5301	15,540	0,000	 V 			15,326	45673	3,284	0,000	0,262	1,011	0	0	0,000	0,000
59	25,514	25,376	25,632	38523	2921	13,188	0,000	 V 			15,555	19463	7,707	0,000	0,586	1,015	0	0	0,000	0,000
60	25,742	25,632	25,920	39034	2489	15,686	0,000	 V 			15,702	4639	32,332	0,000	0,203	1,009	0	0	0,000	0,000
61	26,127	25,920	26,389	55837	2495	22,379	0,000	 V 			15,952	11684	12,838	0,000	0,311	1,016	0	0	0,000	0,000
62	26,690	26,389	26,805	46014	2324	19,802	0,000	 V 			16,318	11102	13,511	0,000	0,569	1,023	0	0	0,000	0,000
63	26,899	26,805	27,051	26820	2197	12,208	0,000	 V 			16,453	11852	12,656	0,000	0,208	1,008	0	0	0,000	0,000
64	27,276	27,051	27,435	25349	1341	18,901	0,000	 V 			16,698	2460	60,968	0,000	0,237	1,015	0	0	0,000	0,000
65	27,608	27,435	27,787	46825	4130	11,339	0,000	 V 			16,914	126932	1,182	0,000	0,265	1,013	0	0	0,000	0,000
66	27,853	27,787	28,021	11606	1145	10,133	0,000	 V 			17,072	18252	8,218	0,000	0,430	1,009	0	0	0,000	0,000
67	28,160	28,021	28,245	6662	561	11,867	0,000	 V 			17,271	11614	12,916	0,000	0,329	1,012	0	0	0,000	0,000
68	28,439	28,245	28,512	15944	1292	12,344	0,000	 V 			17,452	11337	13,231	0,000	0,264	1,010	0	0	0,000	0,000
69	28,943	28,512	29,045	81195	3289	24,684	0,000	 V 			17,780	5001	29,994	0,000	0,373	1,019	0	0	0,000	0,000
70	29,297	29,045	29,685	395557	27529	14,369	0,000	 V 			18,009	98549	1,522	0,000	0,352	1,013	0	0	0,000	0,000
71	30,606	29,685	30,912	324718	13629	23,826	0,000	 V 			18,858	45058	3,329	0,000	2,755	1,047	0	0	0,000	0,000
72	31,061	30,912	31,243	26266	1724	15,233	0,000	 V 			19,154	49744	3,015	0,000	0,803	1,016	0	0	0,000	0,000
73	31,440	31,243	31,627	25069	1624	15,433	0,000	 V 			19,400	63181	2,374	0,000	0,716	1,013	0	0	0,000	0,000
74	31,822	31,627	32,107	28160	2381	11,826	0,000	 V 			19,648	155847	0,962	0,000	0,929	1,013	0	0	0,000	0,000
75	32,448	32,320	32,576	1992	230	8,643	0,000	   			20,054	311593	0,481	0,990	2,256	1,021	0	0	0,000	0,000
76	33,959	32,821	34,037	148724	6957	21,377	0,000	   			21,034	233315	0,643	0,000	5,882	1,049	0	0	0,000	0,000
77	35,052	34,037	35,403	1276081	116112	10,990	0,000	 V 			21,743	587757	0,255	0,000	4,711	1,034	0	0	0,000	0,000
78	35,473	35,403	35,541	148327	21657	6,849	0,000	 V 			22,016	176978	0,848	0,000	1,617	1,013	0	0	0,000	0,000
79	35,576	35,541	35,723	133721	15937	8,391	0,000	 V 			22,083	41164	3,644	0,000	0,199	1,003	0	0	0,000	0,000
80	35,834	35,723	35,968	145956	11544	12,644	0,000	 V 			22,251	39357	3,811	0,000	0,363	1,008	0	0	0,000	0,000
81	36,023	35,968	36,085	54753	7982	6,860	0,000	 V 			22,373	473	317,105	0,000	0,051	1,005	0	0	0,000	0,000
82	36,320	36,085	36,480	173514	8749	19,833	0,000	 V 			22,566	12334	12,162	0,000	0,075	1,009	0	0	0,000	0,000
83	36,769	36,480	36,907	110974	4364	25,432	0,000	 V 			22,857	0	0,000	0,000	0,000	1,013	0	0	0,000	0,000
84	37,033	36,907	37,141	38033	3453	11,014	0,000	 V 			23,029	91628	1,637	0,000	0,000	1,007	0	0	0,000	0,000
85	37,216	37,141	37,376	12997	1504	8,641	0,000	 V 			23,148	4175	35,930	0,000	0,131	1,005	0	0	0,000	0,000
86	38,905	38,645	39,968	1046852	37123	28,200	0,000	   			24,243	347914	0,431	2,918	1,315	1,047	0	0	0,000	0,000

[Compound Results(PDA)]
# of IDs	0

[PDA Multi Chromatogram(Ch1)]
# of Points	      4689
Interval(msec)	640
Start Time(min)	0
End Time(min)	50,0053
Intensity Units	mAU
Intensity Multiplier	1
Type	MultiChrom
Wavelength(nm)	254
Bandwidth(nm)	4
R.Time (min)	Intensity
0,00000	0
0,01067	0
0,02133	0
0,03200	0
0,04267	0
0,05333	0
0,06400	0
0,07467	0
0,08533	0
0,09600	0
0,10667	-7
0,11733	-7
0,12800	-2
0,13867	-7
0,14933	-8
0,16000	-9
0,17067	-9
0,18133	-11
0,19200	-19
0,20267	-14
0,21333	-23
0,22400	-15
0,23467	-22
0,24533	-22
0,25600	-20
0,26667	-13
0,27733	-11
0,28800	-16
0,29867	-22
0,30933	-23
0,32000	-21
0,33067	-16
0,34133	-21
0,35200	-15
0,36267	-16
0,37333	-12
0,38400	-17
0,39467	-23
0,40533	-22
0,41600	-19
0,42667	-22
0,43733	-19
0,44800	-9
0,45867	-14
0,46933	-25
0,48000	-23
0,49067	-29
0,50133	-17
0,51200	-18
0,52267	-19
0,53333	-23
0,54400	-28
0,55467	-25
0,56533	-29
0,57600	-29
0,58667	-22
0,59733	-30
0,60800	-27
0,61867	-30
0,62933	-27
0,64000	-24
0,65067	-28
0,66133	-23
0,67200	-13
0,68267	-22
0,69333	-29
0,70400	-34
0,71467	-29
0,72533	-33
0,73600	-31
0,74667	-31
0,75733	-26
0,76800	-29
0,77867	-28
0,78933	-29
0,80000	-41
0,81067	-32
0,82133	-29
0,83200	-27
0,84267	-20
0,85333	-31
0,86400	-28
0,87467	-27
0,88533	-32
0,89600	-29
0,90667	-31
0,91733	-26
0,92800	-28
0,93867	-34
0,94933	-41
0,96000	-40
0,97067	-35
0,98133	-36
0,99200	-36
1,00267	-32
1,01333	-36
1,02400	-31
1,03467	-32
1,04533	-44
1,05600	-45
1,06667	-47
1,07733	-43
1,08800	-34
1,09867	-32
1,10933	-43
1,12000	-37
1,13067	-23
1,14133	-14
1,15200	-3
1,16267	3
1,17333	8
1,18400	6
1,19467	1
1,20533	1
1,21600	4
1,22667	-0
1,23733	-1
1,24800	-1
1,25867	3
1,26933	-2
1,28000	2
1,29067	42
1,30133	139
1,31200	294
1,32267	505
1,33333	719
1,34400	969
1,35467	1275
1,36533	1667
1,37600	2400
1,38667	4132
1,39733	7875
1,40800	13941
1,41867	21062
1,42933	27609
1,44000	32964
1,45067	37677
1,46133	42604
1,47200	47989
1,48267	53453
1,49333	58601
1,50400	63337
1,51467	67302
1,52533	70162
1,53600	71649
1,54667	71632
1,55733	70156
1,56800	67423
1,57867	63865
1,58933	59943
1,60000	56194
1,61067	52955
1,62133	50293
1,63200	47843
1,64267	44977
1,65333	41472
1,66400	37699
1,67467	34425
1,68533	32337
1,69600	32100
1,70667	34468
1,71733	40182
1,72800	49696
1,73867	60775
1,74933	66879
1,76000	64435
1,77067	56525
1,78133	47863
1,79200	41139
1,80267	36662
1,81333	33572
1,82400	30981
1,83467	28507
1,84533	26178
1,85600	24316
1,86667	23107
1,87733	22435
1,88800	21950
1,89867	21305
1,90933	20316
1,92000	19053
1,93067	17665
1,94133	16318
1,95200	15122
1,96267	14133
1,97333	13386
1,98400	12905
1,99467	12815
2,00533	13542
2,01600	16018
2,02667	21734
2,03733	31619
2,04800	45000
2,05867	59108
2,06933	70560
2,08000	76928
2,09067	77689
2,10133	73859
2,11200	67095
2,12267	59089
2,13333	51117
2,14400	43962
2,15467	38010
2,16533	33367
2,17600	30017
2,18667	27800
2,19733	26499
2,20800	25822
2,21867	25561
2,22933	25728
2,24000	26595
2,25067	28471
2,26133	31425
2,27200	35097
2,28267	38611
2,29333	41016
2,30400	41675
2,31467	40514
2,32533	37949
2,33600	34717
2,34667	31485
2,35733	28765
2,36800	26681
2,37867	25180
2,38933	24021
2,40000	23023
2,41067	22057
2,42133	21059
2,43200	20063
2,44267	19055
2,45333	18050
2,46400	17039
2,47467	16024
2,48533	15016
2,49600	14040
2,50667	13147
2,51733	12389
2,52800	11790
2,53867	11442
2,54933	11369
2,56000	11625
2,57067	12204
2,58133	13022
2,59200	13948
2,60267	14834
2,61333	15543
2,62400	15988
2,63467	16168
2,64533	16123
2,65600	15923
2,66667	15648
2,67733	15356
2,68800	15081
2,69867	14855
2,70933	14704
2,72000	14664
2,73067	14767
2,74133	14996
2,75200	15330
2,76267	15655
2,77333	15898
2,78400	15955
2,79467	15775
2,80533	15350
2,81600	14738
2,82667	14027
2,83733	13297
2,84800	12597
2,85867	11973
2,86933	11408
2,88000	10896
2,89067	10409
2,90133	9942
2,91200	9515
2,92267	9119
2,93333	8784
2,94400	8539
2,95467	8394
2,96533	8330
2,97600	8355
2,98667	8424
2,99733	8514
3,00800	8595
3,01867	8636
3,02933	8641
3,04000	8604
3,05067	8539
3,06133	8459
3,07200	8377
3,08267	8318
3,09333	8294
3,10400	8353
3,11467	8571
3,12533	9151
3,13600	10502
3,14667	13392
3,15733	19107
3,16800	29591
3,17867	47470
3,18933	75368
3,20000	115255
3,21067	167460
3,22133	229445
3,23200	296097
3,24267	359496
3,25333	412068
3,26400	447252
3,27467	461698
3,28533	455389
3,29600	431106
3,30667	393679
3,31733	348172
3,32800	299796
3,33867	252250
3,34933	208323
3,36000	169366
3,37067	136077
3,38133	108447
3,39200	86026
3,40267	68228
3,41333	54276
3,42400	43543
3,43467	35347
3,44533	29152
3,45600	24472
3,46667	20966
3,47733	18321
3,48800	16313
3,49867	14748
3,50933	13485
3,52000	12494
3,53067	11786
3,54133	11359
3,55200	11110
3,56267	10952
3,57333	10847
3,58400	10802
3,59467	10837
3,60533	10945
3,61600	11126
3,62667	11370
3,63733	11630
3,64800	11892
3,65867	12136
3,66933	12326
3,68000	12454
3,69067	12474
3,70133	12407
3,71200	12257
3,72267	12014
3,73333	11726
3,74400	11395
3,75467	11039
3,76533	10687
3,77600	10343
3,78667	10018
3,79733	9710
3,80800	9437
3,81867	9173
3,82933	8935
3,84000	8717
3,85067	8519
3,86133	8362
3,87200	8235
3,88267	8138
3,89333	8074
3,90400	8032
3,91467	8027
3,92533	8055
3,93600	8098
3,94667	8171
3,95733	8276
3,96800	8401
3,97867	8570
3,98933	8779
4,00000	9010
4,01067	9275
4,02133	9572
4,03200	9897
4,04267	10248
4,05333	10607
4,06400	10977
4,07467	11349
4,08533	11719
4,09600	12083
4,10667	12434
4,11733	12777
4,12800	13097
4,13867	13406
4,14933	13707
4,16000	14021
4,17067	14387
4,18133	14835
4,19200	15448
4,20267	16321
4,21333	17571
4,22400	19340
4,23467	21748
4,24533	24902
4,25600	28842
4,26667	33513
4,27733	38741
4,28800	44225
4,29867	49648
4,30933	54551
4,32000	58595
4,33067	61459
4,34133	62959
4,35200	63034
4,36267	61744
4,37333	59276
4,38400	55857
4,39467	51779
4,40533	47318
4,41600	42713
4,42667	38192
4,43733	33913
4,44800	29967
4,45867	26424
4,46933	23315
4,48000	20615
4,49067	18305
4,50133	16342
4,51200	14671
4,52267	13259
4,53333	12056
4,54400	11038
4,55467	10169
4,56533	9440
4,57600	8810
4,58667	8277
4,59733	7806
4,60800	7409
4,61867	7076
4,62933	6770
4,64000	6507
4,65067	6273
4,66133	6068
4,67200	5886
4,68267	5732
4,69333	5598
4,70400	5481
4,71467	5408
4,72533	5345
4,73600	5314
4,74667	5303
4,75733	5319
4,76800	5356
4,77867	5418
4,78933	5494
4,80000	5586
4,81067	5678
4,82133	5762
4,83200	5848
4,84267	5915
4,85333	5961
4,86400	5978
4,87467	5990
4,88533	5974
4,89600	5945
4,90667	5910
4,91733	5867
4,92800	5830
4,93867	5784
4,94933	5755
4,96000	5739
4,97067	5725
4,98133	5723
4,99200	5726
5,00267	5722
5,01333	5729
5,02400	5733
5,03467	5742
5,04533	5745
5,05600	5757
5,06667	5767
5,07733	5789
5,08800	5818
5,09867	5848
5,10933	5891
5,12000	5945
5,13067	6005
5,14133	6062
5,15200	6139
5,16267	6221
5,17333	6290
5,18400	6369
5,19467	6439
5,20533	6506
5,21600	6580
5,22667	6634
5,23733	6683
5,24800	6706
5,25867	6715
5,26933	6699
5,28000	6661
5,29067	6600
5,30133	6511
5,31200	6400
5,32267	6266
5,33333	6116
5,34400	5966
5,35467	5812
5,36533	5657
5,37600	5523
5,38667	5402
5,39733	5322
5,40800	5253
5,41867	5213
5,42933	5197
5,44000	5203
5,45067	5218
5,46133	5245
5,47200	5276
5,48267	5299
5,49333	5307
5,50400	5302
5,51467	5285
5,52533	5254
5,53600	5209
5,54667	5164
5,55733	5112
5,56800	5068
5,57867	5016
5,58933	4984
5,60000	4955
5,61067	4932
5,62133	4932
5,63200	4940
5,64267	4955
5,65333	4981
5,66400	5021
5,67467	5077
5,68533	5138
5,69600	5216
5,70667	5298
5,71733	5386
5,72800	5491
5,73867	5583
5,74933	5672
5,76000	5758
5,77067	5840
5,78133	5922
5,79200	5994
5,80267	6061
5,81333	6112
5,82400	6169
5,83467	6230
5,84533	6289
5,85600	6342
5,86667	6414
5,87733	6486
5,88800	6578
5,89867	6689
5,90933	6817
5,92000	6987
5,93067	7179
5,94133	7406
5,95200	7667
5,96267	7949
5,97333	8249
5,98400	8534
5,99467	8813
6,00533	9048
6,01600	9237
6,02667	9376
6,03733	9449
6,04800	9479
6,05867	9461
6,06933	9420
6,08000	9370
6,09067	9318
6,10133	9277
6,11200	9248
6,12267	9243
6,13333	9267
6,14400	9302
6,15467	9375
6,16533	9473
6,17600	9607
6,18667	9781
6,19733	9995
6,20800	10258
6,21867	10609
6,22933	11075
6,24000	11681
6,25067	12488
6,26133	13541
6,27200	14898
6,28267	16596
6,29333	18679
6,30400	21151
6,31467	23989
6,32533	27120
6,33600	30449
6,34667	33796
6,35733	37008
6,36800	39885
6,37867	42243
6,38933	43925
6,40000	44832
6,41067	44881
6,42133	44110
6,43200	42587
6,44267	40438
6,45333	37802
6,46400	34859
6,47467	31753
6,48533	28678
6,49600	25714
6,50667	22977
6,51733	20500
6,52800	18344
6,53867	16500
6,54933	14938
6,56000	13642
6,57067	12577
6,58133	11720
6,59200	11050
6,60267	10542
6,61333	10204
6,62400	10061
6,63467	10206
6,64533	10765
6,65600	11966
6,66667	14088
6,67733	17558
6,68800	22759
6,69867	30073
6,70933	39588
6,72000	51178
6,73067	64318
6,74133	78304
6,75200	92154
6,76267	104976
6,77333	116063
6,78400	124887
6,79467	131243
6,80533	135074
6,81600	136583
6,82667	136022
6,83733	133697
6,84800	129967
6,85867	125145
6,86933	119546
6,88000	113403
6,89067	106981
6,90133	100461
6,91200	94026
6,92267	87777
6,93333	81823
6,94400	76231
6,95467	71065
6,96533	66345
6,97600	62037
6,98667	58170
6,99733	54717
7,00800	51641
7,01867	48890
7,02933	46442
7,04000	44252
7,05067	42301
7,06133	40520
7,07200	38907
7,08267	37419
7,09333	36040
7,10400	34735
7,11467	33496
7,12533	32303
7,13600	31152
7,14667	30035
7,15733	28935
7,16800	27857
7,17867	26804
7,18933	25772
7,20000	24767
7,21067	23790
7,22133	22821
7,23200	21893
7,24267	20979
7,25333	20084
7,26400	19217
7,27467	18386
7,28533	17576
7,29600	16805
7,30667	16072
7,31733	15374
7,32800	14723
7,33867	14100
7,34933	13524
7,36000	12987
7,37067	12486
7,38133	12029
7,39200	11614
7,40267	11240
7,41333	10902
7,42400	10606
7,43467	10353
7,44533	10121
7,45600	9925
7,46667	9753
7,47733	9599
7,48800	9451
7,49867	9325
7,50933	9200
7,52000	9089
7,53067	8984
7,54133	8884
7,55200	8796
7,56267	8743
7,57333	8711
7,58400	8728
7,59467	8789
7,60533	8904
7,61600	9103
7,62667	9355
7,63733	9680
7,64800	10071
7,65867	10527
7,66933	11028
7,68000	11546
7,69067	12062
7,70133	12549
7,71200	12986
7,72267	13353
7,73333	13613
7,74400	13780
7,75467	13816
7,76533	13742
7,77600	13569
7,78667	13300
7,79733	12970
7,80800	12578
7,81867	12151
7,82933	11702
7,84000	11257
7,85067	10834
7,86133	10442
7,87200	10075
7,88267	9766
7,89333	9507
7,90400	9302
7,91467	9149
7,92533	9066
7,93600	9066
7,94667	9165
7,95733	9387
7,96800	9770
7,97867	10346
7,98933	11171
8,00000	12281
8,01067	13703
8,02133	15465
8,03200	17542
8,04267	19896
8,05333	22460
8,06400	25132
8,07467	27770
8,08533	30240
8,09600	32391
8,10667	34114
8,11733	35322
8,12800	35943
8,13867	36001
8,14933	35506
8,16000	34548
8,17067	33178
8,18133	31518
8,19200	29675
8,20267	27755
8,21333	25858
8,22400	24066
8,23467	22435
8,24533	21018
8,25600	19846
8,26667	18945
8,27733	18349
8,28800	18041
8,29867	18041
8,30933	18339
8,32000	18939
8,33067	19940
8,34133	21527
8,35200	24111
8,36267	28427
8,37333	35663
8,38400	47425
8,39467	65400
8,40533	90948
8,41600	123778
8,42667	162219
8,43733	202572
8,44800	240927
8,45867	273331
8,46933	297476
8,48000	312440
8,49067	318660
8,50133	317359
8,51200	310009
8,52267	298136
8,53333	282919
8,54400	265421
8,55467	246448
8,56533	226618
8,57600	206504
8,58667	186436
8,59733	166849
8,60800	148014
8,61867	130280
8,62933	113756
8,64000	98680
8,65067	85098
8,66133	73138
8,67200	62746
8,68267	53901
8,69333	46477
8,70400	40394
8,71467	35481
8,72533	31600
8,73600	28618
8,74667	26399
8,75733	24829
8,76800	23832
8,77867	23314
8,78933	23208
8,80000	23477
8,81067	24061
8,82133	24892
8,83200	25908
8,84267	27028
8,85333	28188
8,86400	29284
8,87467	30246
8,88533	31019
8,89600	31538
8,90667	31774
8,91733	31703
8,92800	31337
8,93867	30702
8,94933	29831
8,96000	28789
8,97067	27602
8,98133	26327
8,99200	24999
9,00267	23674
9,01333	22375
9,02400	21134
9,03467	19972
9,04533	18889
9,05600	17884
9,06667	16966
9,07733	16129
9,08800	15371
9,09867	14684
9,10933	14071
9,12000	13526
9,13067	13047
9,14133	12634
9,15200	12267
9,16267	11946
9,17333	11684
9,18400	11456
9,19467	11267
9,20533	11101
9,21600	10968
9,22667	10853
9,23733	10751
9,24800	10656
9,25867	10563
9,26933	10482
9,28000	10411
9,29067	10362
9,30133	10348
9,31200	10393
9,32267	10549
9,33333	10877
9,34400	11470
9,35467	12466
9,36533	14047
9,37600	16435
9,38667	19881
9,39733	24676
9,40800	31067
9,41867	39285
9,42933	49346
9,44000	61110
9,45067	74235
9,46133	88088
9,47200	101911
9,48267	114687
9,49333	125493
9,50400	133421
9,51467	137865
9,52533	138512
9,53600	135379
9,54667	128872
9,55733	119602
9,56800	108457
9,57867	96268
9,58933	83892
9,60000	71977
9,61067	61079
9,62133	51491
9,63200	43353
9,64267	36692
9,65333	31350
9,66400	27203
9,67467	24050
9,68533	21714
9,69600	20001
9,70667	18781
9,71733	17895
9,72800	17276
9,73867	16827
9,74933	16509
9,76000	16269
9,77067	16082
9,78133	15929
9,79200	15816
9,80267	15740
9,81333	15702
9,82400	15736
9,83467	15856
9,84533	16085
9,85600	16461
9,86667	17029
9,87733	17810
9,88800	18823
9,89867	20100
9,90933	21620
9,92000	23367
9,93067	25259
9,94133	27213
9,95200	29116
9,96267	30834
9,97333	32248
9,98400	33254
9,99467	33784
10,00533	33798
10,01600	33295
10,02667	32330
10,03733	30984
10,04800	29371
10,05867	27573
10,06933	25726
10,08000	23907
10,09067	22182
10,10133	20611
10,11200	19237
10,12267	18081
10,13333	17146
10,14400	16453
10,15467	15986
10,16533	15751
10,17600	15754
10,18667	15976
10,19733	16384
10,20800	16967
10,21867	17681
10,22933	18471
10,24000	19277
10,25067	20036
10,26133	20693
10,27200	21176
10,28267	21460
10,29333	21524
10,30400	21367
10,31467	20999
10,32533	20458
10,33600	19806
10,34667	19075
10,35733	18317
10,36800	17573
10,37867	16863
10,38933	16223
10,40000	15685
10,41067	15226
10,42133	14851
10,43200	14551
10,44267	14322
10,45333	14143
10,46400	14005
10,47467	13892
10,48533	13811
10,49600	13728
10,50667	13666
10,51733	13602
10,52800	13521
10,53867	13443
10,54933	13367
10,56000	13295
10,57067	13238
10,58133	13180
10,59200	13132
10,60267	13107
10,61333	13101
10,62400	13107
10,63467	13110
10,64533	13119
10,65600	13099
10,66667	13062
10,67733	12998
10,68800	12922
10,69867	12820
10,70933	12712
10,72000	12585
10,73067	12470
10,74133	12363
10,75200	12287
10,76267	12236
10,77333	12222
10,78400	12244
10,79467	12288
10,80533	12375
10,81600	12473
10,82667	12598
10,83733	12724
10,84800	12860
10,85867	13002
10,86933	13171
10,88000	13350
10,89067	13552
10,90133	13805
10,91200	14166
10,92267	14678
10,93333	15440
10,94400	16592
10,95467	18272
10,96533	20711
10,97600	24122
10,98667	28791
10,99733	34906
11,00800	42670
11,01867	52070
11,02933	63031
11,04000	75215
11,05067	88116
11,06133	101075
11,07200	113322
11,08267	124150
11,09333	132840
11,10400	138898
11,11467	141997
11,12533	142071
11,13600	139299
11,14667	134000
11,15733	126674
11,16800	117800
11,17867	107975
11,18933	97679
11,20000	87392
11,21067	77451
11,22133	68124
11,23200	59588
11,24267	51925
11,25333	45204
11,26400	39365
11,27467	34393
11,28533	30196
11,29600	26680
11,30667	23767
11,31733	21382
11,32800	19418
11,33867	17812
11,34933	16512
11,36000	15471
11,37067	14631
11,38133	13984
11,39200	13477
11,40267	13130
11,41333	12887
11,42400	12758
11,43467	12753
11,44533	12834
11,45600	13006
11,46667	13251
11,47733	13577
11,48800	13978
11,49867	14456
11,50933	15008
11,52000	15637
11,53067	16326
11,54133	17096
11,55200	17916
11,56267	18791
11,57333	19715
11,58400	20622
11,59467	21491
11,60533	22275
11,61600	22941
11,62667	23429
11,63733	23714
11,64800	23765
11,65867	23614
11,66933	23251
11,68000	22744
11,69067	22114
11,70133	21436
11,71200	20743
11,72267	20082
11,73333	19470
11,74400	18921
11,75467	18440
11,76533	17996
11,77600	17602
11,78667	17237
11,79733	16923
11,80800	16648
11,81867	16454
11,82933	16371
11,84000	16440
11,85067	16755
11,86133	17442
11,87200	18761
11,88267	21230
11,89333	25799
11,90400	34097
11,91467	48897
11,92533	74166
11,93600	115233
11,94667	178194
11,95733	268159
11,96800	388152
11,97867	534919
11,98933	701003
12,00000	872545
12,01067	1035966
12,02133	1177522
12,03200	1289107
12,04267	1366852
12,05333	1411241
12,06400	1425003
12,07467	1412293
12,08533	1378408
12,09600	1326854
12,10667	1262021
12,11733	1187122
12,12800	1105071
12,13867	1018657
12,14933	929636
12,16000	840450
12,17067	752414
12,18133	667471
12,19200	586351
12,20267	510586
12,21333	440644
12,22400	377353
12,23467	320621
12,24533	270728
12,25600	227255
12,26667	189994
12,27733	158321
12,28800	131703
12,29867	109552
12,30933	91242
12,32000	76241
12,33067	63968
12,34133	54038
12,35200	45987
12,36267	39518
12,37333	34330
12,38400	30213
12,39467	26973
12,40533	24459
12,41600	22514
12,42667	21034
12,43733	19937
12,44800	19139
12,45867	18562
12,46933	18145
12,48000	17837
12,49067	17573
12,50133	17349
12,51200	17145
12,52267	16927
12,53333	16708
12,54400	16497
12,55467	16350
12,56533	16291
12,57600	16401
12,58667	16804
12,59733	17627
12,60800	19023
12,61867	21221
12,62933	24378
12,64000	28656
12,65067	34107
12,66133	40656
12,67200	48093
12,68267	55961
12,69333	63786
12,70400	70938
12,71467	76934
12,72533	81329
12,73600	83905
12,74667	84569
12,75733	83433
12,76800	80697
12,77867	76639
12,78933	71610
12,80000	65913
12,81067	59859
12,82133	53748
12,83200	47779
12,84267	42163
12,85333	37014
12,86400	32442
12,87467	28447
12,88533	25073
12,89600	22292
12,90667	20113
12,91733	18772
12,92800	19386
12,93867	25614
12,94933	45693
12,96000	92369
12,97067	175592
12,98133	294828
12,99200	434366
13,00267	572150
13,01333	689626
13,02400	777808
13,03467	836813
13,04533	871259
13,05600	887429
13,06667	890586
13,07733	884782
13,08800	872828
13,09867	856419
13,10933	836929
13,12000	815021
13,13067	791399
13,14133	766371
13,15200	740394
13,16267	713662
13,17333	686452
13,18400	658990
13,19467	631441
13,20533	603999
13,21600	576661
13,22667	549738
13,23733	523160
13,24800	497216
13,25867	471791
13,26933	447113
13,28000	423165
13,29067	400063
13,30133	377726
13,31200	356301
13,32267	335746
13,33333	316108
13,34400	297340
13,35467	279478
13,36533	262516
13,37600	246441
13,38667	231256
13,39733	216871
13,40800	203352
13,41867	190609
13,42933	178662
13,44000	167421
13,45067	156905
13,46133	147039
13,47200	137840
13,48267	129216
13,49333	121174
13,50400	113681
13,51467	106718
13,52533	100224
13,53600	94222
13,54667	88670
13,55733	83545
13,56800	78829
13,57867	74495
13,58933	70521
13,60000	66887
13,61067	63564
13,62133	60527
13,63200	57778
13,64267	55279
13,65333	53060
13,66400	51140
13,67467	49556
13,68533	48338
13,69600	47549
13,70667	47225
13,71733	47415
13,72800	48103
13,73867	49264
13,74933	50818
13,76000	52652
13,77067	54586
13,78133	56424
13,79200	57950
13,80267	58993
13,81333	59397
13,82400	59062
13,83467	57976
13,84533	56153
13,85600	53703
13,86667	50753
13,87733	47488
13,88800	44081
13,89867	40675
13,90933	37436
13,92000	34448
13,93067	31794
13,94133	29513
13,95200	27611
13,96267	26076
13,97333	24885
13,98400	23977
13,99467	23316
14,00533	22868
14,01600	22570
14,02667	22368
14,03733	22228
14,04800	22111
14,05867	21977
14,06933	21801
14,08000	21591
14,09067	21314
14,10133	20978
14,11200	20600
14,12267	20193
14,13333	19771
14,14400	19347
14,15467	18931
14,16533	18556
14,17600	18231
14,18667	17998
14,19733	17843
14,20800	17812
14,21867	17935
14,22933	18228
14,24000	18706
14,25067	19378
14,26133	20264
14,27200	21326
14,28267	22534
14,29333	23826
14,30400	25122
14,31467	26348
14,32533	27402
14,33600	28202
14,34667	28698
14,35733	28843
14,36800	28641
14,37867	28128
14,38933	27349
14,40000	26383
14,41067	25305
14,42133	24205
14,43200	23137
14,44267	22171
14,45333	21339
14,46400	20658
14,47467	20137
14,48533	19764
14,49600	19514
14,50667	19385
14,51733	19329
14,52800	19331
14,53867	19345
14,54933	19365
14,56000	19348
14,57067	19308
14,58133	19209
14,59200	19039
14,60267	18807
14,61333	18518
14,62400	18179
14,63467	17799
14,64533	17397
14,65600	16997
14,66667	16592
14,67733	16226
14,68800	15888
14,69867	15593
14,70933	15352
14,72000	15156
14,73067	15009
14,74133	14924
14,75200	14884
14,76267	14883
14,77333	14908
14,78400	14976
14,79467	15048
14,80533	15142
14,81600	15252
14,82667	15374
14,83733	15514
14,84800	15647
14,85867	15799
14,86933	15957
14,88000	16124
14,89067	16302
14,90133	16497
14,91200	16712
14,92267	16949
14,93333	17232
14,94400	17594
14,95467	18087
14,96533	18747
14,97600	19640
14,98667	20850
14,99733	22410
15,00800	24401
15,01867	26826
15,02933	29680
15,04000	32869
15,05067	36280
15,06133	39735
15,07200	43025
15,08267	45903
15,09333	48194
15,10400	49683
15,11467	50264
15,12533	49919
15,13600	48684
15,14667	46676
15,15733	44069
15,16800	41057
15,17867	37858
15,18933	34644
15,20000	31588
15,21067	28770
15,22133	26295
15,23200	24162
15,24267	22388
15,25333	20967
15,26400	19871
15,27467	19051
15,28533	18501
15,29600	18161
15,30667	18032
15,31733	18067
15,32800	18248
15,33867	18557
15,34933	18923
15,36000	19325
15,37067	19736
15,38133	20084
15,39200	20347
15,40267	20477
15,41333	20464
15,42400	20321
15,43467	20038
15,44533	19668
15,45600	19217
15,46667	18736
15,47733	18269
15,48800	17849
15,49867	17501
15,50933	17220
15,52000	17010
15,53067	16863
15,54133	16758
15,55200	16665
15,56267	16574
15,57333	16466
15,58400	16310
15,59467	16112
15,60533	15874
15,61600	15591
15,62667	15285
15,63733	14959
15,64800	14633
15,65867	14311
15,66933	14014
15,68000	13750
15,69067	13503
15,70133	13305
15,71200	13147
15,72267	13032
15,73333	12937
15,74400	12891
15,75467	12876
15,76533	12880
15,77600	12913
15,78667	12972
15,79733	13046
15,80800	13141
15,81867	13274
15,82933	13491
15,84000	13854
15,85067	14446
15,86133	15476
15,87200	17223
15,88267	20090
15,89333	24690
15,90400	31722
15,91467	42201
15,92533	56993
15,93600	77122
15,94667	103038
15,95733	134993
15,96800	172140
15,97867	213185
15,98933	255654
16,00000	296978
16,01067	334058
16,02133	364392
16,03200	385939
16,04267	397557
16,05333	399029
16,06400	391034
16,07467	374725
16,08533	351873
16,09600	324184
16,10667	293682
16,11733	261889
16,12800	230454
16,13867	200346
16,14933	172548
16,16000	147433
16,17067	125407
16,18133	106384
16,19200	90288
16,20267	76804
16,21333	65650
16,22400	56472
16,23467	48941
16,24533	42775
16,25600	37708
16,26667	33539
16,27733	30109
16,28800	27271
16,29867	24915
16,30933	22966
16,32000	21343
16,33067	19996
16,34133	18877
16,35200	17948
16,36267	17173
16,37333	16513
16,38400	15966
16,39467	15497
16,40533	15110
16,41600	14804
16,42667	14546
16,43733	14330
16,44800	14154
16,45867	14009
16,46933	13880
16,48000	13756
16,49067	13633
16,50133	13505
16,51200	13386
16,52267	13265
16,53333	13154
16,54400	13038
16,55467	12929
16,56533	12855
16,57600	12798
16,58667	12773
16,59733	12787
16,60800	12830
16,61867	12903
16,62933	13007
16,64000	13124
16,65067	13258
16,66133	13392
16,67200	13521
16,68267	13632
16,69333	13719
16,70400	13751
16,71467	13761
16,72533	13730
16,73600	13665
16,74667	13584
16,75733	13503
16,76800	13437
16,77867	13412
16,78933	13464
16,80000	13637
16,81067	13986
16,82133	14560
16,83200	15410
16,84267	16596
16,85333	18169
16,86400	20170
16,87467	22578
16,88533	25394
16,89600	28488
16,90667	31787
16,91733	35098
16,92800	38235
16,93867	41028
16,94933	43255
16,96000	44802
16,97067	45576
16,98133	45537
16,99200	44740
17,00267	43235
17,01333	41190
17,02400	38742
17,03467	36051
17,04533	33261
17,05600	30531
17,06667	27941
17,07733	25557
17,08800	23433
17,09867	21573
17,10933	19971
17,12000	18628
17,13067	17514
17,14133	16616
17,15200	15914
17,16267	15382
17,17333	15003
17,18400	14773
17,19467	14689
17,20533	14755
17,21600	14960
17,22667	15313
17,23733	15816
17,24800	16456
17,25867	17230
17,26933	18131
17,28000	19140
17,29067	20241
17,30133	21387
17,31200	22541
17,32267	23667
17,33333	24694
17,34400	25581
17,35467	26281
17,36533	26750
17,37600	26980
17,38667	26959
17,39733	26712
17,40800	26252
17,41867	25638
17,42933	24892
17,44000	24086
17,45067	23274
17,46133	22498
17,47200	21781
17,48267	21125
17,49333	20557
17,50400	20075
17,51467	19676
17,52533	19343
17,53600	19074
17,54667	18834
17,55733	18621
17,56800	18412
17,57867	18187
17,58933	17952
17,60000	17679
17,61067	17379
17,62133	17055
17,63200	16695
17,64267	16310
17,65333	15915
17,66400	15521
17,67467	15128
17,68533	14757
17,69600	14418
17,70667	14134
17,71733	13908
17,72800	13766
17,73867	13718
17,74933	13791
17,76000	13997
17,77067	14355
17,78133	14871
17,79200	15549
17,80267	16369
17,81333	17297
17,82400	18332
17,83467	19373
17,84533	20401
17,85600	21337
17,86667	22121
17,87733	22714
17,88800	23082
17,89867	23211
17,90933	23112
17,92000	22792
17,93067	22287
17,94133	21641
17,95200	20888
17,96267	20078
17,97333	19265
17,98400	18472
17,99467	17734
18,00533	17079
18,01600	16505
18,02667	16026
18,03733	15637
18,04800	15345
18,05867	15120
18,06933	14939
18,08000	14803
18,09067	14717
18,10133	14630
18,11200	14567
18,12267	14522
18,13333	14493
18,14400	14493
18,15467	14520
18,16533	14580
18,17600	14688
18,18667	14815
18,19733	14987
18,20800	15177
18,21867	15393
18,22933	15598
18,24000	15791
18,25067	15975
18,26133	16126
18,27200	16239
18,28267	16304
18,29333	16326
18,30400	16305
18,31467	16241
18,32533	16148
18,33600	16028
18,34667	15882
18,35733	15699
18,36800	15517
18,37867	15333
18,38933	15146
18,40000	14970
18,41067	14814
18,42133	14705
18,43200	14636
18,44267	14634
18,45333	14708
18,46400	14890
18,47467	15188
18,48533	15628
18,49600	16239
18,50667	17063
18,51733	18119
18,52800	19445
18,53867	21076
18,54933	23038
18,56000	25338
18,57067	27972
18,58133	30925
18,59200	34176
18,60267	37697
18,61333	41454
18,62400	45442
18,63467	49701
18,64533	54272
18,65600	59260
18,66667	64734
18,67733	70819
18,68800	77554
18,69867	84929
18,70933	92832
18,72000	101053
18,73067	109281
18,74133	117098
18,75200	124072
18,76267	129743
18,77333	133705
18,78400	135657
18,79467	135444
18,80533	133024
18,81600	128524
18,82667	122213
18,83733	114409
18,84800	105584
18,85867	96097
18,86933	86405
18,88000	76861
18,89067	67788
18,90133	59400
18,91200	51826
18,92267	45174
18,93333	39409
18,94400	34563
18,95467	30536
18,96533	27286
18,97600	24691
18,98667	22709
18,99733	21221
19,00800	20187
19,01867	19507
19,02933	19128
19,04000	18994
19,05067	19047
19,06133	19211
19,07200	19445
19,08267	19704
19,09333	19951
19,10400	20144
19,11467	20272
19,12533	20318
19,13600	20281
19,14667	20168
19,15733	19990
19,16800	19746
19,17867	19470
19,18933	19176
19,20000	18874
19,21067	18581
19,22133	18333
19,23200	18111
19,24267	17919
19,25333	17791
19,26400	17697
19,27467	17655
19,28533	17649
19,29600	17661
19,30667	17699
19,31733	17746
19,32800	17801
19,33867	17846
19,34933	17871
19,36000	17895
19,37067	17911
19,38133	17915
19,39200	17907
19,40267	17890
19,41333	17866
19,42400	17839
19,43467	17800
19,44533	17738
19,45600	17662
19,46667	17565
19,47733	17462
19,48800	17340
19,49867	17252
19,50933	17188
19,52000	17204
19,53067	17312
19,54133	17538
19,55200	17891
19,56267	18364
19,57333	18955
19,58400	19619
19,59467	20334
19,60533	21024
19,61600	21640
19,62667	22138
19,63733	22479
19,64800	22632
19,65867	22589
19,66933	22383
19,68000	22016
19,69067	21566
19,70133	21054
19,71200	20547
19,72267	20100
19,73333	19741
19,74400	19498
19,75467	19386
19,76533	19419
19,77600	19568
19,78667	19813
19,79733	20133
19,80800	20485
19,81867	20825
19,82933	21121
19,84000	21321
19,85067	21400
19,86133	21335
19,87200	21119
19,88267	20746
19,89333	20259
19,90400	19665
19,91467	18987
19,92533	18286
19,93600	17580
19,94667	16924
19,95733	16336
19,96800	15817
19,97867	15397
19,98933	15070
20,00000	14830
20,01067	14671
20,02133	14556
20,03200	14492
20,04267	14454
20,05333	14413
20,06400	14373
20,07467	14328
20,08533	14247
20,09600	14148
20,10667	14025
20,11733	13888
20,12800	13737
20,13867	13588
20,14933	13439
20,16000	13306
20,17067	13209
20,18133	13157
20,19200	13153
20,20267	13209
20,21333	13370
20,22400	13641
20,23467	14042
20,24533	14624
20,25600	15383
20,26667	16353
20,27733	17507
20,28800	18865
20,29867	20390
20,30933	22036
20,32000	23751
20,33067	25444
20,34133	27039
20,35200	28457
20,36267	29616
20,37333	30443
20,38400	30912
20,39467	31005
20,40533	30738
20,41600	30122
20,42667	29209
20,43733	28070
20,44800	26762
20,45867	25377
20,46933	23980
20,48000	22657
20,49067	21465
20,50133	20468
20,51200	19723
20,52267	19253
20,53333	19087
20,54400	19233
20,55467	19677
20,56533	20397
20,57600	21337
20,58667	22444
20,59733	23622
20,60800	24799
20,61867	25891
20,62933	26800
20,64000	27487
20,65067	27874
20,66133	27976
20,67200	27772
20,68267	27289
20,69333	26601
20,70400	25731
20,71467	24771
20,72533	23768
20,73600	22780
20,74667	21856
20,75733	21016
20,76800	20272
20,77867	19647
20,78933	19120
20,80000	18678
20,81067	18301
20,82133	17979
20,83200	17679
20,84267	17403
20,85333	17127
20,86400	16846
20,87467	16559
20,88533	16266
20,89600	15957
20,90667	15657
20,91733	15353
20,92800	15054
20,93867	14773
20,94933	14499
20,96000	14248
20,97067	14023
20,98133	13815
20,99200	13643
21,00267	13481
21,01333	13356
21,02400	13248
21,03467	13152
21,04533	13068
21,05600	12992
21,06667	12935
21,07733	12902
21,08800	12873
21,09867	12887
21,10933	12916
21,12000	13015
21,13067	13187
21,14133	13468
21,15200	13906
21,16267	14542
21,17333	15442
21,18400	16669
21,19467	18297
21,20533	20393
21,21600	23009
21,22667	26190
21,23733	29894
21,24800	34113
21,25867	38718
21,26933	43578
21,28000	48449
21,29067	53141
21,30133	57379
21,31200	60966
21,32267	63670
21,33333	65379
21,34400	66050
21,35467	65734
21,36533	64579
21,37600	62838
21,38667	60831
21,39733	58949
21,40800	57631
21,41867	57343
21,42933	58566
21,44000	61712
21,45067	67211
21,46133	75294
21,47200	86196
21,48267	99834
21,49333	116095
21,50400	134462
21,51467	154347
21,52533	174775
21,53600	194785
21,54667	213217
21,55733	228968
21,56800	241057
21,57867	248746
21,58933	251568
21,60000	249390
21,61067	242402
21,62133	231195
21,63200	216445
21,64267	199160
21,65333	180210
21,66400	160645
21,67467	141189
21,68533	122612
21,69600	105346
21,70667	89809
21,71733	76107
21,72800	64287
21,73867	54270
21,74933	45919
21,76000	39052
21,77067	33447
21,78133	28918
21,79200	25289
21,80267	22402
21,81333	20108
21,82400	18317
21,83467	16918
21,84533	15845
21,85600	15027
21,86667	14418
21,87733	13980
21,88800	13683
21,89867	13507
21,90933	13460
21,92000	13510
21,93067	13673
21,94133	13948
21,95200	14345
21,96267	14876
21,97333	15542
21,98400	16369
21,99467	17339
22,00533	18420
22,01600	19617
22,02667	20860
22,03733	22114
22,04800	23332
22,05867	24461
22,06933	25421
22,08000	26184
22,09067	26690
22,10133	26931
22,11200	26902
22,12267	26597
22,13333	26061
22,14400	25323
22,15467	24425
22,16533	23436
22,17600	22406
22,18667	21403
22,19733	20468
22,20800	19633
22,21867	18930
22,22933	18372
22,24000	17965
22,25067	17709
22,26133	17566
22,27200	17535
22,28267	17576
22,29333	17672
22,30400	17767
22,31467	17872
22,32533	17944
22,33600	17972
22,34667	17951
22,35733	17893
22,36800	17779
22,37867	17624
22,38933	17423
22,40000	17202
22,41067	16945
22,42133	16653
22,43200	16338
22,44267	16011
22,45333	15668
22,46400	15344
22,47467	15033
22,48533	14758
22,49600	14532
22,50667	14358
22,51733	14261
22,52800	14248
22,53867	14332
22,54933	14497
22,56000	14763
22,57067	15110
22,58133	15527
22,59200	15989
22,60267	16490
22,61333	17002
22,62400	17497
22,63467	17964
22,64533	18369
22,65600	18711
22,66667	18966
22,67733	19114
22,68800	19172
22,69867	19148
22,70933	19007
22,72000	18791
22,73067	18506
22,74133	18145
22,75200	17740
22,76267	17296
22,77333	16849
22,78400	16381
22,79467	15919
22,80533	15478
22,81600	15062
22,82667	14683
22,83733	14334
22,84800	14027
22,85867	13754
22,86933	13524
22,88000	13330
22,89067	13158
22,90133	13032
22,91200	12962
22,92267	12947
22,93333	13001
22,94400	13139
22,95467	13372
22,96533	13714
22,97600	14164
22,98667	14721
22,99733	15382
23,00800	16100
23,01867	16880
23,02933	17675
23,04000	18452
23,05067	19161
23,06133	19773
23,07200	20257
23,08267	20599
23,09333	20792
23,10400	20836
23,11467	20754
23,12533	20575
23,13600	20324
23,14667	20044
23,15733	19771
23,16800	19558
23,17867	19421
23,18933	19404
23,20000	19506
23,21067	19734
23,22133	20099
23,23200	20596
23,24267	21201
23,25333	21914
23,26400	22707
23,27467	23578
23,28533	24500
23,29600	25460
23,30667	26441
23,31733	27405
23,32800	28318
23,33867	29150
23,34933	29851
23,36000	30362
23,37067	30659
23,38133	30716
23,39200	30544
23,40267	30152
23,41333	29573
23,42400	28869
23,43467	28106
23,44533	27373
23,45600	26711
23,46667	26217
23,47733	25912
23,48800	25843
23,49867	25997
23,50933	26345
23,52000	26851
23,53067	27437
23,54133	28039
23,55200	28569
23,56267	28974
23,57333	29182
23,58400	29155
23,59467	28879
23,60533	28362
23,61600	27619
23,62667	26689
23,63733	25609
23,64800	24437
23,65867	23225
23,66933	22046
23,68000	20914
23,69067	19871
23,70133	18934
23,71200	18108
23,72267	17415
23,73333	16816
23,74400	16319
23,75467	15898
23,76533	15556
23,77600	15270
23,78667	15037
23,79733	14842
23,80800	14690
23,81867	14575
23,82933	14500
23,84000	14493
23,85067	14559
23,86133	14747
23,87200	15112
23,88267	15706
23,89333	16624
23,90400	17968
23,91467	19852
23,92533	22409
23,93600	25754
23,94667	29985
23,95733	35151
23,96800	41279
23,97867	48275
23,98933	56028
24,00000	64297
24,01067	72822
24,02133	81224
24,03200	89241
24,04267	96464
24,05333	102589
24,06400	107393
24,07467	110692
24,08533	112415
24,09600	112561
24,10667	111183
24,11733	108406
24,12800	104406
24,13867	99404
24,14933	93586
24,16000	87197
24,17067	80409
24,18133	73469
24,19200	66518
24,20267	59805
24,21333	53390
24,22400	47432
24,23467	42007
24,24533	37147
24,25600	32881
24,26667	29192
24,27733	26082
24,28800	23473
24,29867	21316
24,30933	19562
24,32000	18151
24,33067	17014
24,34133	16112
24,35200	15392
24,36267	14824
24,37333	14371
24,38400	13999
24,39467	13710
24,40533	13467
24,41600	13253
24,42667	13087
24,43733	12927
24,44800	12800
24,45867	12692
24,46933	12595
24,48000	12510
24,49067	12433
24,50133	12367
24,51200	12318
24,52267	12276
24,53333	12245
24,54400	12228
24,55467	12236
24,56533	12256
24,57600	12282
24,58667	12322
24,59733	12383
24,60800	12441
24,61867	12500
24,62933	12562
24,64000	12635
24,65067	12693
24,66133	12736
24,67200	12754
24,68267	12759
24,69333	12738
24,70400	12702
24,71467	12660
24,72533	12589
24,73600	12515
24,74667	12443
24,75733	12364
24,76800	12300
24,77867	12251
24,78933	12211
24,80000	12194
24,81067	12185
24,82133	12205
24,83200	12251
24,84267	12295
24,85333	12353
24,86400	12404
24,87467	12456
24,88533	12503
24,89600	12526
24,90667	12532
24,91733	12536
24,92800	12512
24,93867	12477
24,94933	12432
24,96000	12382
24,97067	12336
24,98133	12307
24,99200	12295
25,00267	12302
25,01333	12355
25,02400	12450
25,03467	12579
25,04533	12739
25,05600	12943
25,06667	13193
25,07733	13472
25,08800	13763
25,09867	14058
25,10933	14357
25,12000	14620
25,13067	14841
25,14133	15010
25,15200	15115
25,16267	15145
25,17333	15104
25,18400	15000
25,19467	14833
25,20533	14620
25,21600	14388
25,22667	14129
25,23733	13856
25,24800	13575
25,25867	13322
25,26933	13071
25,28000	12853
25,29067	12657
25,30133	12491
25,31200	12352
25,32267	12228
25,33333	12125
25,34400	12040
25,35467	11979
25,36533	11942
25,37600	11922
25,38667	11931
25,39733	11958
25,40800	12017
25,41867	12099
25,42933	12203
25,44000	12317
25,45067	12449
25,46133	12566
25,47200	12682
25,48267	12779
25,49333	12856
25,50400	12895
25,51467	12910
25,52533	12891
25,53600	12837
25,54667	12773
25,55733	12696
25,56800	12602
25,57867	12523
25,58933	12449
25,60000	12393
25,61067	12345
25,62133	12333
25,63200	12330
25,64267	12345
25,65333	12369
25,66400	12403
25,67467	12442
25,68533	12477
25,69600	12502
25,70667	12530
25,71733	12549
25,72800	12564
25,73867	12571
25,74933	12569
25,76000	12567
25,77067	12555
25,78133	12537
25,79200	12509
25,80267	12464
25,81333	12411
25,82400	12363
25,83467	12298
25,84533	12237
25,85600	12181
25,86667	12115
25,87733	12068
25,88800	12029
25,89867	11998
25,90933	11984
25,92000	11974
25,93067	11985
25,94133	12005
25,95200	12046
25,96267	12087
25,97333	12130
25,98400	12177
25,99467	12239
26,00533	12294
26,01600	12348
26,02667	12400
26,03733	12460
26,04800	12505
26,05867	12544
26,06933	12591
26,08000	12625
26,09067	12659
26,10133	12697
26,11200	12719
26,12267	12737
26,13333	12735
26,14400	12723
26,15467	12697
26,16533	12651
26,17600	12594
26,18667	12524
26,19733	12455
26,20800	12384
26,21867	12309
26,22933	12236
26,24000	12168
26,25067	12110
26,26133	12060
26,27200	12005
26,28267	11961
26,29333	11906
26,30400	11864
26,31467	11835
26,32533	11792
26,33600	11758
26,34667	11721
26,35733	11686
26,36800	11672
26,37867	11657
26,38933	11636
26,40000	11637
26,41067	11640
26,42133	11651
26,43200	11671
26,44267	11699
26,45333	11731
26,46400	11758
26,47467	11801
26,48533	11834
26,49600	11860
26,50667	11904
26,51733	11944
26,52800	11986
26,53867	12025
26,54933	12074
26,56000	12134
26,57067	12199
26,58133	12265
26,59200	12331
26,60267	12412
26,61333	12488
26,62400	12559
26,63467	12620
26,64533	12670
26,65600	12725
26,66667	12752
26,67733	12789
26,68800	12798
26,69867	12795
26,70933	12776
26,72000	12746
26,73067	12705
26,74133	12669
26,75200	12620
26,76267	12583
26,77333	12541
26,78400	12513
26,79467	12496
26,80533	12487
26,81600	12492
26,82667	12520
26,83733	12552
26,84800	12599
26,85867	12649
26,86933	12693
26,88000	12730
26,89067	12751
26,90133	12757
26,91200	12738
26,92267	12689
26,93333	12627
26,94400	12537
26,95467	12442
26,96533	12338
26,97600	12234
26,98667	12131
26,99733	12048
27,00800	11982
27,01867	11925
27,02933	11888
27,04000	11874
27,05067	11863
27,06133	11865
27,07200	11887
27,08267	11894
27,09333	11908
27,10400	11910
27,11467	11912
27,12533	11900
27,13600	11895
27,14667	11898
27,15733	11886
27,16800	11879
27,17867	11884
27,18933	11881
27,20000	11884
27,21067	11913
27,22133	11944
27,23200	11971
27,24267	12000
27,25333	12025
27,26400	12048
27,27467	12056
27,28533	12051
27,29600	12022
27,30667	11978
27,31733	11934
27,32800	11865
27,33867	11790
27,34933	11714
27,36000	11631
27,37067	11533
27,38133	11453
27,39200	11375
27,40267	11327
27,41333	11280
27,42400	11239
27,43467	11233
27,44533	11251
27,45600	11312
27,46667	11407
27,47733	11547
27,48800	11746
27,49867	11996
27,50933	12295
27,52000	12632
27,53067	13010
27,54133	13411
27,55200	13799
27,56267	14166
27,57333	14490
27,58400	14742
27,59467	14903
27,60533	14982
27,61600	14960
27,62667	14846
27,63733	14646
27,64800	14397
27,65867	14099
27,66933	13780
27,68000	13460
27,69067	13152
27,70133	12878
27,71200	12628
27,72267	12414
27,73333	12253
27,74400	12134
27,75467	12049
27,76533	11998
27,77600	11971
27,78667	11966
27,79733	11984
27,80800	12012
27,81867	12035
27,82933	12060
27,84000	12074
27,85067	12098
27,86133	12086
27,87200	12071
27,88267	12036
27,89333	11984
27,90400	11932
27,91467	11859
27,92533	11794
27,93600	11714
27,94667	11638
27,95733	11577
27,96800	11520
27,97867	11468
27,98933	11432
28,00000	11410
28,01067	11393
28,02133	11386
28,03200	11393
28,04267	11403
28,05333	11428
28,06400	11439
28,07467	11465
28,08533	11501
28,09600	11533
28,10667	11554
28,11733	11583
28,12800	11602
28,13867	11622
28,14933	11632
28,16000	11641
28,17067	11646
28,18133	11639
28,19200	11632
28,20267	11624
28,21333	11629
28,22400	11623
28,23467	11627
28,24533	11634
28,25600	11644
28,26667	11658
28,27733	11678
28,28800	11724
28,29867	11768
28,30933	11812
28,32000	11867
28,33067	11941
28,34133	12011
28,35200	12082
28,36267	12154
28,37333	12225
28,38400	12300
28,39467	12361
28,40533	12404
28,41600	12448
28,42667	12478
28,43733	12486
28,44800	12481
28,45867	12475
28,46933	12459
28,48000	12440
28,49067	12424
28,50133	12419
28,51200	12416
28,52267	12422
28,53333	12443
28,54400	12478
28,55467	12528
28,56533	12602
28,57600	12677
28,58667	12763
28,59733	12852
28,60800	12940
28,61867	13040
28,62933	13128
28,64000	13222
28,65067	13301
28,66133	13382
28,67200	13453
28,68267	13524
28,69333	13578
28,70400	13640
28,71467	13698
28,72533	13737
28,73600	13779
28,74667	13819
28,75733	13867
28,76800	13918
28,77867	13970
28,78933	14022
28,80000	14094
28,81067	14164
28,82133	14227
28,83200	14295
28,84267	14375
28,85333	14437
28,86400	14496
28,87467	14559
28,88533	14603
28,89600	14637
28,90667	14671
28,91733	14674
28,92800	14687
28,93867	14692
28,94933	14692
28,96000	14688
28,97067	14669
28,98133	14649
28,99200	14639
29,00267	14631
29,01333	14604
29,02400	14571
29,03467	14541
29,04533	14519
29,05600	14528
29,06667	14574
29,07733	14666
29,08800	14817
29,09867	15059
29,10933	15418
29,12000	15929
29,13067	16606
29,14133	17480
29,15200	18545
29,16267	19845
29,17333	21344
29,18400	23044
29,19467	24919
29,20533	26931
29,21600	29009
29,22667	31082
29,23733	33072
29,24800	34883
29,25867	36450
29,26933	37702
29,28000	38574
29,29067	39037
29,30133	39077
29,31200	38704
29,32267	37955
29,33333	36864
29,34400	35493
29,35467	33924
29,36533	32205
29,37600	30419
29,38667	28619
29,39733	26851
29,40800	25161
29,41867	23573
29,42933	22107
29,44000	20770
29,45067	19579
29,46133	18521
29,47200	17585
29,48267	16775
29,49333	16085
29,50400	15478
29,51467	14979
29,52533	14545
29,53600	14179
29,54667	13873
29,55733	13608
29,56800	13377
29,57867	13190
29,58933	13021
29,60000	12865
29,61067	12725
29,62133	12621
29,63200	12531
29,64267	12458
29,65333	12399
29,66400	12357
29,67467	12329
29,68533	12323
29,69600	12324
29,70667	12351
29,71733	12384
29,72800	12439
29,73867	12497
29,74933	12563
29,76000	12635
29,77067	12694
29,78133	12752
29,79200	12812
29,80267	12864
29,81333	12911
29,82400	12958
29,83467	13000
29,84533	13032
29,85600	13050
29,86667	13077
29,87733	13098
29,88800	13129
29,89867	13153
29,90933	13173
29,92000	13205
29,93067	13232
29,94133	13271
29,95200	13306
29,96267	13347
29,97333	13387
29,98400	13422
29,99467	13457
30,00533	13489
30,01600	13513
30,02667	13539
30,03733	13556
30,04800	13571
30,05867	13590
30,06933	13606
30,08000	13620
30,09067	13631
30,10133	13651
30,11200	13680
30,12267	13720
30,13333	13754
30,14400	13795
30,15467	13830
30,16533	13881
30,17600	13930
30,18667	13989
30,19733	14056
30,20800	14130
30,21867	14212
30,22933	14312
30,24000	14432
30,25067	14583
30,26133	14761
30,27200	14986
30,28267	15255
30,29333	15581
30,30400	15939
30,31467	16356
30,32533	16814
30,33600	17300
30,34667	17814
30,35733	18330
30,36800	18834
30,37867	19306
30,38933	19732
30,40000	20098
30,41067	20390
30,42133	20600
30,43200	20752
30,44267	20855
30,45333	20920
30,46400	20983
30,47467	21072
30,48533	21208
30,49600	21427
30,50667	21750
30,51733	22137
30,52800	22629
30,53867	23178
30,54933	23748
30,56000	24322
30,57067	24848
30,58133	25275
30,59200	25571
30,60267	25716
30,61333	25675
30,62400	25451
30,63467	25042
30,64533	24468
30,65600	23746
30,66667	22917
30,67733	22011
30,68800	21074
30,69867	20127
30,70933	19191
30,72000	18310
30,73067	17487
30,74133	16767
30,75200	16123
30,76267	15557
30,77333	15091
30,78400	14699
30,79467	14377
30,80533	14104
30,81600	13898
30,82667	13729
30,83733	13607
30,84800	13501
30,85867	13417
30,86933	13355
30,88000	13306
30,89067	13281
30,90133	13255
30,91200	13242
30,92267	13244
30,93333	13260
30,94400	13290
30,95467	13349
30,96533	13417
30,97600	13495
30,98667	13583
30,99733	13673
31,00800	13762
31,01867	13846
31,02933	13910
31,04000	13961
31,05067	13988
31,06133	14000
31,07200	13987
31,08267	13954
31,09333	13904
31,10400	13854
31,11467	13784
31,12533	13722
31,13600	13643
31,14667	13589
31,15733	13532
31,16800	13484
31,17867	13441
31,18933	13400
31,20000	13374
31,21067	13342
31,22133	13338
31,23200	13331
31,24267	13324
31,25333	13325
31,26400	13340
31,27467	13350
31,28533	13377
31,29600	13404
31,30667	13436
31,31733	13488
31,32800	13532
31,33867	13584
31,34933	13654
31,36000	13713
31,37067	13787
31,38133	13849
31,39200	13920
31,40267	13979
31,41333	14019
31,42400	14043
31,43467	14056
31,44533	14055
31,45600	14017
31,46667	13977
31,47733	13905
31,48800	13831
31,49867	13733
31,50933	13629
31,52000	13522
31,53067	13415
31,54133	13292
31,55200	13185
31,56267	13089
31,57333	12998
31,58400	12918
31,59467	12860
31,60533	12813
31,61600	12770
31,62667	12755
31,63733	12762
31,64800	12779
31,65867	12818
31,66933	12889
31,68000	12975
31,69067	13084
31,70133	13225
31,71200	13379
31,72267	13562
31,73333	13751
31,74400	13954
31,75467	14164
31,76533	14364
31,77600	14552
31,78667	14710
31,79733	14837
31,80800	14930
31,81867	14970
31,82933	14961
31,84000	14912
31,85067	14817
31,86133	14694
31,87200	14538
31,88267	14359
31,89333	14177
31,90400	13995
31,91467	13805
31,92533	13634
31,93600	13484
31,94667	13351
31,95733	13230
31,96800	13126
31,97867	13044
31,98933	12968
32,00000	12903
32,01067	12856
32,02133	12824
32,03200	12800
32,04267	12781
32,05333	12759
32,06400	12740
32,07467	12733
32,08533	12719
32,09600	12707
32,10667	12706
32,11733	12712
32,12800	12712
32,13867	12715
32,14933	12707
32,16000	12714
32,17067	12714
32,18133	12715
32,19200	12717
32,20267	12732
32,21333	12729
32,22400	12731
32,23467	12732
32,24533	12734
32,25600	12735
32,26667	12744
32,27733	12751
32,28800	12758
32,29867	12778
32,30933	12804
32,32000	12814
32,33067	12844
32,34133	12888
32,35200	12927
32,36267	12966
32,37333	13013
32,38400	13058
32,39467	13107
32,40533	13151
32,41600	13183
32,42667	13213
32,43733	13238
32,44800	13252
32,45867	13255
32,46933	13256
32,48000	13252
32,49067	13234
32,50133	13231
32,51200	13221
32,52267	13226
32,53333	13225
32,54400	13221
32,55467	13220
32,56533	13221
32,57600	13229
32,58667	13241
32,59733	13258
32,60800	13278
32,61867	13300
32,62933	13318
32,64000	13349
32,65067	13380
32,66133	13421
32,67200	13446
32,68267	13478
32,69333	13521
32,70400	13565
32,71467	13601
32,72533	13644
32,73600	13703
32,74667	13756
32,75733	13799
32,76800	13852
32,77867	13912
32,78933	13971
32,80000	14033
32,81067	14109
32,82133	14166
32,83200	14233
32,84267	14311
32,85333	14392
32,86400	14480
32,87467	14564
32,88533	14664
32,89600	14760
32,90667	14851
32,91733	14958
32,92800	15059
32,93867	15157
32,94933	15265
32,96000	15366
32,97067	15460
32,98133	15549
32,99200	15648
33,00267	15740
33,01333	15831
33,02400	15928
33,03467	16021
33,04533	16107
33,05600	16200
33,06667	16295
33,07733	16391
33,08800	16488
33,09867	16582
33,10933	16677
33,12000	16765
33,13067	16869
33,14133	16963
33,15200	17070
33,16267	17159
33,17333	17261
33,18400	17359
33,19467	17470
33,20533	17568
33,21600	17674
33,22667	17776
33,23733	17875
33,24800	17982
33,25867	18067
33,26933	18165
33,28000	18262
33,29067	18351
33,30133	18441
33,31200	18539
33,32267	18630
33,33333	18719
33,34400	18808
33,35467	18893
33,36533	18990
33,37600	19085
33,38667	19174
33,39733	19272
33,40800	19368
33,41867	19461
33,42933	19561
33,44000	19670
33,45067	19798
33,46133	19944
33,47200	20109
33,48267	20299
33,49333	20516
33,50400	20744
33,51467	20953
33,52533	21143
33,53600	21295
33,54667	21413
33,55733	21475
33,56800	21504
33,57867	21525
33,58933	21553
33,60000	21572
33,61067	21604
33,62133	21652
33,63200	21720
33,64267	21801
33,65333	21884
33,66400	21956
33,67467	22034
33,68533	22119
33,69600	22186
33,70667	22271
33,71733	22343
33,72800	22438
33,73867	22526
33,74933	22614
33,76000	22696
33,77067	22783
33,78133	22869
33,79200	22956
33,80267	23040
33,81333	23135
33,82400	23237
33,83467	23351
33,84533	23462
33,85600	23583
33,86667	23712
33,87733	23889
33,88800	24144
33,89867	24573
33,90933	25224
33,92000	26062
33,93067	26981
33,94133	27748
33,95200	28190
33,96267	28242
33,97333	27919
33,98400	27389
33,99467	26811
34,00533	26328
34,01600	26000
34,02667	25811
34,03733	25750
34,04800	25771
34,05867	25840
34,06933	25900
34,08000	25958
34,09067	26004
34,10133	26053
34,11200	26110
34,12267	26163
34,13333	26232
34,14400	26322
34,15467	26426
34,16533	26552
34,17600	26687
34,18667	26856
34,19733	27053
34,20800	27263
34,21867	27467
34,22933	27666
34,24000	27864
34,25067	28055
34,26133	28218
34,27200	28342
34,28267	28444
34,29333	28519
34,30400	28571
34,31467	28613
34,32533	28677
34,33600	28747
34,34667	28838
34,35733	28946
34,36800	29086
34,37867	29264
34,38933	29489
34,40000	29754
34,41067	30039
34,42133	30325
34,43200	30582
34,44267	30782
34,45333	30908
34,46400	30985
34,47467	31016
34,48533	31016
34,49600	31016
34,50667	31015
34,51733	31028
34,52800	31047
34,53867	31056
34,54933	31065
34,56000	31092
34,57067	31139
34,58133	31188
34,59200	31264
34,60267	31325
34,61333	31406
34,62400	31486
34,63467	31558
34,64533	31624
34,65600	31697
34,66667	31776
34,67733	31841
34,68800	31912
34,69867	31973
34,70933	32040
34,72000	32112
34,73067	32188
34,74133	32280
34,75200	32410
34,76267	32542
34,77333	32690
34,78400	32842
34,79467	32989
34,80533	33124
34,81600	33284
34,82667	33454
34,83733	33608
34,84800	33738
34,85867	33853
34,86933	33928
34,88000	34006
34,89067	34060
34,90133	34123
34,91200	34210
34,92267	34302
34,93333	34421
34,94400	34601
34,95467	34996
34,96533	36160
34,97600	39298
34,98667	45930
34,99733	57378
35,00800	74214
35,01867	95980
35,02933	118981
35,04000	136930
35,05067	144239
35,06133	139876
35,07200	127430
35,08267	111821
35,09333	96927
35,10400	84539
35,11467	74992
35,12533	67967
35,13600	62985
35,14667	59560
35,15733	57220
35,16800	55485
35,17867	54019
35,18933	52662
35,20000	51412
35,21067	50291
35,22133	49352
35,23200	48572
35,24267	47904
35,25333	47354
35,26400	46869
35,27467	46452
35,28533	46080
35,29600	45751
35,30667	45455
35,31733	45209
35,32800	45045
35,33867	44910
35,34933	44696
35,36000	44326
35,37067	43830
35,38133	43352
35,39200	43018
35,40267	42965
35,41333	43411
35,42400	44648
35,43467	46725
35,44533	49200
35,45600	51264
35,46667	52367
35,47733	52417
35,48800	51696
35,49867	50512
35,50933	49074
35,52000	47631
35,53067	46541
35,54133	46096
35,55200	46349
35,56267	46946
35,57333	47343
35,58400	47205
35,59467	46559
35,60533	45649
35,61600	44752
35,62667	43976
35,63733	43353
35,64800	42865
35,65867	42476
35,66933	42198
35,68000	41997
35,69067	41870
35,70133	41786
35,71200	41744
35,72267	41739
35,73333	41756
35,74400	41807
35,75467	41889
35,76533	42047
35,77600	42333
35,78667	42773
35,79733	43339
35,80800	43918
35,81867	44360
35,82933	44566
35,84000	44555
35,85067	44452
35,86133	44289
35,87200	44073
35,88267	43771
35,89333	43403
35,90400	43019
35,91467	42668
35,92533	42372
35,93600	42140
35,94667	41961
35,95733	41856
35,96800	41825
35,97867	41850
35,98933	41926
36,00000	42039
36,01067	42136
36,02133	42183
36,03200	42154
36,04267	42082
36,05333	41995
36,06400	41928
36,07467	41881
36,08533	41874
36,09600	41913
36,10667	41976
36,11733	42055
36,12800	42159
36,13867	42302
36,14933	42485
36,16000	42666
36,17067	42838
36,18133	42996
36,19200	43131
36,20267	43274
36,21333	43398
36,22400	43484
36,23467	43503
36,24533	43457
36,25600	43389
36,26667	43381
36,27733	43528
36,28800	43869
36,29867	44314
36,30933	44686
36,32000	44809
36,33067	44662
36,34133	44351
36,35200	43986
36,36267	43668
36,37333	43422
36,38400	43223
36,39467	43050
36,40533	42900
36,41600	42766
36,42667	42659
36,43733	42588
36,44800	42519
36,45867	42479
36,46933	42456
36,48000	42451
36,49067	42456
36,50133	42464
36,51200	42471
36,52267	42486
36,53333	42500
36,54400	42506
36,55467	42507
36,56533	42513
36,57600	42519
36,58667	42523
36,59733	42525
36,60800	42519
36,61867	42534
36,62933	42563
36,64000	42593
36,65067	42639
36,66133	42686
36,67200	42744
36,68267	42804
36,69333	42846
36,70400	42876
36,71467	42910
36,72533	42962
36,73600	43034
36,74667	43124
36,75733	43196
36,76800	43236
36,77867	43207
36,78933	43132
36,80000	43029
36,81067	42920
36,82133	42831
36,83200	42759
36,84267	42718
36,85333	42688
36,86400	42671
36,87467	42677
36,88533	42667
36,89600	42669
36,90667	42667
36,91733	42668
36,92800	42683
36,93867	42692
36,94933	42716
36,96000	42781
36,97067	42903
36,98133	43089
36,99200	43312
37,00267	43557
37,01333	43786
37,02400	43937
37,03467	43979
37,04533	43900
37,05600	43730
37,06667	43518
37,07733	43302
37,08800	43116
37,09867	42962
37,10933	42850
37,12000	42781
37,13067	42747
37,14133	42733
37,15200	42748
37,16267	42789
37,17333	42856
37,18400	42966
37,19467	43070
37,20533	43150
37,21600	43176
37,22667	43152
37,23733	43094
37,24800	43014
37,25867	42923
37,26933	42857
37,28000	42800
37,29067	42759
37,30133	42740
37,31200	42725
37,32267	42706
37,33333	42700
37,34400	42680
37,35467	42679
37,36533	42676
37,37600	42672
37,38667	42681
37,39733	42689
37,40800	42691
37,41867	42686
37,42933	42689
37,44000	42698
37,45067	42706
37,46133	42710
37,47200	42727
37,48267	42744
37,49333	42746
37,50400	42763
37,51467	42771
37,52533	42777
37,53600	42773
37,54667	42767
37,55733	42764
37,56800	42766
37,57867	42771
37,58933	42786
37,60000	42782
37,61067	42787
37,62133	42808
37,63200	42814
37,64267	42830
37,65333	42838
37,66400	42849
37,67467	42863
37,68533	42879
37,69600	42876
37,70667	42895
37,71733	42909
37,72800	42923
37,73867	42942
37,74933	42966
37,76000	42980
37,77067	42995
37,78133	43006
37,79200	43004
37,80267	42996
37,81333	42996
37,82400	42998
37,83467	42994
37,84533	42994
37,85600	43015
37,86667	43035
37,87733	43067
37,88800	43091
37,89867	43106
37,90933	43129
37,92000	43139
37,93067	43114
37,94133	43096
37,95200	43067
37,96267	43045
37,97333	43015
37,98400	42990
37,99467	42969
38,00533	42945
38,01600	42937
38,02667	42928
38,03733	42923
38,04800	42916
38,05867	42916
38,06933	42904
38,08000	42901
38,09067	42902
38,10133	42913
38,11200	42919
38,12267	42911
38,13333	42910
38,14400	42915
38,15467	42920
38,16533	42921
38,17600	42921
38,18667	42919
38,19733	42925
38,20800	42938
38,21867	42948
38,22933	42958
38,24000	42973
38,25067	42986
38,26133	42985
38,27200	42973
38,28267	42969
38,29333	42971
38,30400	42966
38,31467	42952
38,32533	42951
38,33600	42949
38,34667	42949
38,35733	42947
38,36800	42941
38,37867	42943
38,38933	42935
38,40000	42937
38,41067	42937
38,42133	42935
38,43200	42938
38,44267	42937
38,45333	42939
38,46400	42935
38,47467	42946
38,48533	42943
38,49600	42939
38,50667	42937
38,51733	42943
38,52800	42945
38,53867	42957
38,54933	42960
38,56000	42964
38,57067	42956
38,58133	42962
38,59200	42958
38,60267	42960
38,61333	42960
38,62400	42971
38,63467	42982
38,64533	42986
38,65600	43005
38,66667	43018
38,67733	43025
38,68800	43041
38,69867	43060
38,70933	43068
38,72000	43097
38,73067	43147
38,74133	43224
38,75200	43341
38,76267	43544
38,77333	43900
38,78400	44452
38,79467	45303
38,80533	46569
38,81600	48372
38,82667	50804
38,83733	53870
38,84800	57503
38,85867	61492
38,86933	65459
38,88000	68977
38,89067	71538
38,90133	72799
38,91200	72568
38,92267	70893
38,93333	68074
38,94400	64498
38,95467	60647
38,96533	56921
38,97600	53642
38,98667	50939
38,99733	48839
39,00800	47289
39,01867	46186
39,02933	45415
39,04000	44887
39,05067	44524
39,06133	44254
39,07200	44060
39,08267	43894
39,09333	43758
39,10400	43642
39,11467	43522
39,12533	43407
39,13600	43303
39,14667	43190
39,15733	43074
39,16800	42960
39,17867	42843
39,18933	42713
39,20000	42564
39,21067	42424
39,22133	42285
39,23200	42128
39,24267	41961
39,25333	41790
39,26400	41617
39,27467	41430
39,28533	41228
39,29600	41016
39,30667	40817
39,31733	40605
39,32800	40383
39,33867	40151
39,34933	39927
39,36000	39707
39,37067	39467
39,38133	39228
39,39200	39005
39,40267	38784
39,41333	38563
39,42400	38341
39,43467	38126
39,44533	37933
39,45600	37738
39,46667	37519
39,47733	37327
39,48800	37127
39,49867	36916
39,50933	36678
39,52000	36408
39,53067	36124
39,54133	35822
39,55200	35467
39,56267	35112
39,57333	34777
39,58400	34450
39,59467	34117
39,60533	33746
39,61600	33326
39,62667	32788
39,63733	32147
39,64800	31401
39,65867	30525
39,66933	29533
39,68000	28461
39,69067	27339
39,70133	26184
39,71200	25003
39,72267	23808
39,73333	22580
39,74400	21376
39,75467	20157
39,76533	18934
39,77600	17758
39,78667	16642
39,79733	15578
39,80800	14565
39,81867	13610
39,82933	12719
39,84000	11904
39,85067	11120
39,86133	10407
39,87200	9748
39,88267	9148
39,89333	8592
39,90400	8075
39,91467	7604
39,92533	7168
39,93600	6771
39,94667	6401
39,95733	6069
39,96800	5753
39,97867	5469
39,98933	5199
40,00000	4953
40,01067	4732
40,02133	4520
40,03200	4312
40,04267	4138
40,05333	3961
40,06400	3799
40,07467	3645
40,08533	3502
40,09600	3363
40,10667	3241
40,11733	3124
40,12800	3005
40,13867	2904
40,14933	2805
40,16000	2700
40,17067	2614
40,18133	2522
40,19200	2433
40,20267	2351
40,21333	2272
40,22400	2197
40,23467	2123
40,24533	2057
40,25600	1985
40,26667	1936
40,27733	1874
40,28800	1808
40,29867	1755
40,30933	1699
40,32000	1647
40,33067	1595
40,34133	1540
40,35200	1486
40,36267	1445
40,37333	1392
40,38400	1353
40,39467	1310
40,40533	1268
40,41600	1221
40,42667	1181
40,43733	1138
40,44800	1099
40,45867	1051
40,46933	1020
40,48000	977
40,49067	941
40,50133	905
40,51200	871
40,52267	848
40,53333	822
40,54400	783
40,55467	748
40,56533	715
40,57600	691
40,58667	666
40,59733	635
40,60800	609
40,61867	587
40,62933	555
40,64000	531
40,65067	508
40,66133	486
40,67200	461
40,68267	433
40,69333	412
40,70400	385
40,71467	347
40,72533	329
40,73600	315
40,74667	293
40,75733	269
40,76800	248
40,77867	225
40,78933	205
40,80000	180
40,81067	159
40,82133	144
40,83200	128
40,84267	96
40,85333	83
40,86400	66
40,87467	48
40,88533	36
40,89600	13
40,90667	-2
40,91733	-17
40,92800	-29
40,93867	-46
40,94933	-58
40,96000	-69
40,97067	-82
40,98133	-93
40,99200	-103
41,00267	-114
41,01333	-122
41,02400	-134
41,03467	-144
41,04533	-155
41,05600	-167
41,06667	-166
41,07733	-178
41,08800	-180
41,09867	-191
41,10933	-203
41,12000	-212
41,13067	-223
41,14133	-224
41,15200	-221
41,16267	-230
41,17333	-238
41,18400	-247
41,19467	-253
41,20533	-262
41,21600	-278
41,22667	-282
41,23733	-286
41,24800	-292
41,25867	-299
41,26933	-301
41,28000	-305
41,29067	-304
41,30133	-308
41,31200	-315
41,32267	-317
41,33333	-312
41,34400	-319
41,35467	-324
41,36533	-320
41,37600	-324
41,38667	-325
41,39733	-325
41,40800	-330
41,41867	-326
41,42933	-327
41,44000	-321
41,45067	-317
41,46133	-325
41,47200	-314
41,48267	-311
41,49333	-306
41,50400	-304
41,51467	-305
41,52533	-293
41,53600	-281
41,54667	-277
41,55733	-290
41,56800	-274
41,57867	-265
41,58933	-264
41,60000	-250
41,61067	-252
41,62133	-250
41,63200	-242
41,64267	-229
41,65333	-221
41,66400	-213
41,67467	-215
41,68533	-209
41,69600	-199
41,70667	-187
41,71733	-182
41,72800	-170
41,73867	-164
41,74933	-156
41,76000	-148
41,77067	-141
41,78133	-127
41,79200	-117
41,80267	-121
41,81333	-118
41,82400	-107
41,83467	-105
41,84533	-96
41,85600	-89
41,86667	-78
41,87733	-73
41,88800	-64
41,89867	-57
41,90933	-47
41,92000	-43
41,93067	-33
41,94133	-22
41,95200	-20
41,96267	-13
41,97333	-8
41,98400	1
41,99467	1
42,00533	4
42,01600	16
42,02667	27
42,03733	33
42,04800	29
42,05867	44
42,06933	43
42,08000	49
42,09067	54
42,10133	59
42,11200	61
42,12267	62
42,13333	69
42,14400	66
42,15467	67
42,16533	75
42,17600	75
42,18667	79
42,19733	81
42,20800	83
42,21867	85
42,22933	85
42,24000	86
42,25067	92
42,26133	103
42,27200	97
42,28267	102
42,29333	102
42,30400	98
42,31467	109
42,32533	104
42,33600	100
42,34667	110
42,35733	102
42,36800	102
42,37867	104
42,38933	101
42,40000	103
42,41067	101
42,42133	108
42,43200	120
42,44267	121
42,45333	116
42,46400	115
42,47467	120
42,48533	119
42,49600	118
42,50667	120
42,51733	120
42,52800	119
42,53867	120
42,54933	115
42,56000	118
42,57067	124
42,58133	121
42,59200	116
42,60267	120
42,61333	118
42,62400	115
42,63467	121
42,64533	122
42,65600	125
42,66667	124
42,67733	120
42,68800	123
42,69867	120
42,70933	125
42,72000	120
42,73067	124
42,74133	125
42,75200	119
42,76267	120
42,77333	124
42,78400	122
42,79467	115
42,80533	121
42,81600	119
42,82667	120
42,83733	122
42,84800	121
42,85867	126
42,86933	120
42,88000	116
42,89067	122
42,90133	114
42,91200	119
42,92267	119
42,93333	112
42,94400	118
42,95467	115
42,96533	116
42,97600	123
42,98667	120
42,99733	116
43,00800	116
43,01867	114
43,02933	110
43,04000	108
43,05067	108
43,06133	119
43,07200	117
43,08267	120
43,09333	113
43,10400	114
43,11467	122
43,12533	123
43,13600	118
43,14667	117
43,15733	120
43,16800	128
43,17867	121
43,18933	126
43,20000	125
43,21067	124
43,22133	130
43,23200	126
43,24267	122
43,25333	125
43,26400	122
43,27467	119
43,28533	122
43,29600	120
43,30667	123
43,31733	119
43,32800	125
43,33867	123
43,34933	119
43,36000	112
43,37067	115
43,38133	118
43,39200	119
43,40267	113
43,41333	119
43,42400	120
43,43467	117
43,44533	119
43,45600	119
43,46667	109
43,47733	113
43,48800	120
43,49867	110
43,50933	116
43,52000	108
43,53067	106
43,54133	105
43,55200	113
43,56267	118
43,57333	111
43,58400	111
43,59467	112
43,60533	113
43,61600	107
43,62667	109
43,63733	106
43,64800	116
43,65867	112
43,66933	115
43,68000	114
43,69067	113
43,70133	110
43,71200	112
43,72267	112
43,73333	113
43,74400	115
43,75467	116
43,76533	108
43,77600	106
43,78667	106
43,79733	106
43,80800	111
43,81867	111
43,82933	115
43,84000	109
43,85067	103
43,86133	110
43,87200	111
43,88267	113
43,89333	119
43,90400	119
43,91467	121
43,92533	108
43,93600	103
43,94667	108
43,95733	104
43,96800	103
43,97867	104
43,98933	110
44,00000	105
44,01067	113
44,02133	104
44,03200	105
44,04267	104
44,05333	105
44,06400	104
44,07467	101
44,08533	101
44,09600	101
44,10667	97
44,11733	102
44,12800	97
44,13867	101
44,14933	99
44,16000	102
44,17067	103
44,18133	95
44,19200	95
44,20267	102
44,21333	103
44,22400	103
44,23467	103
44,24533	96
44,25600	96
44,26667	99
44,27733	95
44,28800	96
44,29867	101
44,30933	101
44,32000	101
44,33067	104
44,34133	104
44,35200	105
44,36267	101
44,37333	99
44,38400	102
44,39467	110
44,40533	109
44,41600	101
44,42667	96
44,43733	94
44,44800	99
44,45867	104
44,46933	106
44,48000	105
44,49067	117
44,50133	104
44,51200	112
44,52267	112
44,53333	110
44,54400	106
44,55467	102
44,56533	100
44,57600	104
44,58667	105
44,59733	103
44,60800	100
44,61867	88
44,62933	97
44,64000	93
44,65067	101
44,66133	105
44,67200	96
44,68267	97
44,69333	93
44,70400	95
44,71467	94
44,72533	102
44,73600	97
44,74667	97
44,75733	92
44,76800	98
44,77867	107
44,78933	99
44,80000	104
44,81067	101
44,82133	97
44,83200	99
44,84267	100
44,85333	101
44,86400	103
44,87467	90
44,88533	97
44,89600	91
44,90667	95
44,91733	96
44,92800	93
44,93867	89
44,94933	92
44,96000	100
44,97067	104
44,98133	92
44,99200	92
45,00267	107
45,01333	99
45,02400	99
45,03467	95
45,04533	97
45,05600	103
45,06667	96
45,07733	93
45,08800	101
45,09867	101
45,10933	92
45,12000	96
45,13067	99
45,14133	99
45,15200	92
45,16267	92
45,17333	93
45,18400	100
45,19467	94
45,20533	103
45,21600	86
45,22667	86
45,23733	87
45,24800	90
45,25867	93
45,26933	102
45,28000	95
45,29067	93
45,30133	101
45,31200	100
45,32267	99
45,33333	97
45,34400	94
45,35467	95
45,36533	99
45,37600	95
45,38667	94
45,39733	88
45,40800	89
45,41867	83
45,42933	94
45,44000	91
45,45067	88
45,46133	92
45,47200	95
45,48267	101
45,49333	92
45,50400	95
45,51467	93
45,52533	85
45,53600	85
45,54667	86
45,55733	90
45,56800	97
45,57867	93
45,58933	90
45,60000	91
45,61067	87
45,62133	93
45,63200	94
45,64267	95
45,65333	90
45,66400	96
45,67467	101
45,68533	97
45,69600	96
45,70667	98
45,71733	102
45,72800	98
45,73867	100
45,74933	94
45,76000	89
45,77067	87
45,78133	81
45,79200	91
45,80267	97
45,81333	96
45,82400	103
45,83467	93
45,84533	94
45,85600	88
45,86667	90
45,87733	95
45,88800	97
45,89867	97
45,90933	98
45,92000	100
45,93067	93
45,94133	93
45,95200	92
45,96267	96
45,97333	98
45,98400	99
45,99467	97
46,00533	95
46,01600	97
46,02667	91
46,03733	94
46,04800	96
46,05867	95
46,06933	93
46,08000	92
46,09067	90
46,10133	85
46,11200	94
46,12267	92
46,13333	92
46,14400	95
46,15467	95
46,16533	93
46,17600	98
46,18667	95
46,19733	93
46,20800	97
46,21867	98
46,22933	99
46,24000	94
46,25067	88
46,26133	91
46,27200	91
46,28267	93
46,29333	90
46,30400	90
46,31467	91
46,32533	97
46,33600	85
46,34667	87
46,35733	87
46,36800	89
46,37867	83
46,38933	88
46,40000	91
46,41067	91
46,42133	92
46,43200	98
46,44267	95
46,45333	95
46,46400	92
46,47467	94
46,48533	93
46,49600	99
46,50667	100
46,51733	101
46,52800	91
46,53867	90
46,54933	86
46,56000	83
46,57067	90
46,58133	91
46,59200	99
46,60267	95
46,61333	92
46,62400	94
46,63467	91
46,64533	92
46,65600	93
46,66667	94
46,67733	96
46,68800	87
46,69867	85
46,70933	89
46,72000	95
46,73067	90
46,74133	87
46,75200	87
46,76267	88
46,77333	89
46,78400	96
46,79467	92
46,80533	92
46,81600	93
46,82667	97
46,83733	90
46,84800	84
46,85867	86
46,86933	89
46,88000	88
46,89067	87
46,90133	88
46,91200	88
46,92267	91
46,93333	90
46,94400	88
46,95467	81
46,96533	88
46,97600	95
46,98667	93
46,99733	94
47,00800	93
47,01867	92
47,02933	81
47,04000	83
47,05067	81
47,06133	89
47,07200	89
47,08267	95
47,09333	93
47,10400	89
47,11467	94
47,12533	92
47,13600	89
47,14667	85
47,15733	84
47,16800	91
47,17867	81
47,18933	87
47,20000	91
47,21067	90
47,22133	94
47,23200	91
47,24267	89
47,25333	86
47,26400	91
47,27467	90
47,28533	95
47,29600	85
47,30667	96
47,31733	90
47,32800	94
47,33867	87
47,34933	85
47,36000	89
47,37067	88
47,38133	87
47,39200	85
47,40267	90
47,41333	87
47,42400	92
47,43467	96
47,44533	89
47,45600	88
47,46667	80
47,47733	79
47,48800	86
47,49867	90
47,50933	90
47,52000	90
47,53067	85
47,54133	85
47,55200	83
47,56267	83
47,57333	91
47,58400	89
47,59467	84
47,60533	90
47,61600	88
47,62667	83
47,63733	88
47,64800	90
47,65867	85
47,66933	81
47,68000	82
47,69067	85
47,70133	75
47,71200	73
47,72267	80
47,73333	82
47,74400	85
47,75467	83
47,76533	80
47,77600	77
47,78667	82
47,79733	85
47,80800	81
47,81867	77
47,82933	79
47,84000	76
47,85067	73
47,86133	85
47,87200	82
47,88267	84
47,89333	86
47,90400	89
47,91467	86
47,92533	86
47,93600	80
47,94667	76
47,95733	80
47,96800	79
47,97867	79
47,98933	78
48,00000	74
48,01067	74
48,02133	80
48,03200	76
48,04267	66
48,05333	79
48,06400	71
48,07467	69
48,08533	63
48,09600	67
48,10667	74
48,11733	73
48,12800	69
48,13867	74
48,14933	71
48,16000	70
48,17067	78
48,18133	78
48,19200	76
48,20267	75
48,21333	76
48,22400	71
48,23467	72
48,24533	81
48,25600	73
48,26667	72
48,27733	68
48,28800	74
48,29867	73
48,30933	75
48,32000	70
48,33067	64
48,34133	58
48,35200	65
48,36267	62
48,37333	66
48,38400	75
48,39467	69
48,40533	61
48,41600	64
48,42667	69
48,43733	65
48,44800	68
48,45867	62
48,46933	57
48,48000	61
48,49067	60
48,50133	60
48,51200	66
48,52267	68
48,53333	61
48,54400	57
48,55467	62
48,56533	55
48,57600	56
48,58667	59
48,59733	54
48,60800	58
48,61867	61
48,62933	56
48,64000	62
48,65067	58
48,66133	54
48,67200	53
48,68267	53
48,69333	57
48,70400	56
48,71467	59
48,72533	60
48,73600	64
48,74667	65
48,75733	63
48,76800	57
48,77867	54
48,78933	55
48,80000	53
48,81067	57
48,82133	56
48,83200	61
48,84267	58
48,85333	52
48,86400	51
48,87467	44
48,88533	57
48,89600	59
48,90667	58
48,91733	53
48,92800	53
48,93867	54
48,94933	56
48,96000	58
48,97067	64
48,98133	54
48,99200	46
49,00267	49
49,01333	53
49,02400	45
49,03467	45
49,04533	50
49,05600	51
49,06667	51
49,07733	50
49,08800	52
49,09867	45
49,10933	44
49,12000	51
49,13067	48
49,14133	48
49,15200	50
49,16267	43
49,17333	44
49,18400	40
49,19467	40
49,20533	40
49,21600	47
49,22667	44
49,23733	47
49,24800	40
49,25867	43
49,26933	48
49,28000	45
49,29067	45
49,30133	45
49,31200	45
49,32267	46
49,33333	46
49,34400	47
49,35467	47
49,36533	41
49,37600	33
49,38667	35
49,39733	37
49,40800	47
49,41867	40
49,42933	37
49,44000	36
49,45067	35
49,46133	45
49,47200	42
49,48267	40
49,49333	32
49,50400	37
49,51467	43
49,52533	43
49,53600	40
49,54667	35
49,55733	38
49,56800	43
49,57867	41
49,58933	35
49,60000	41
49,61067	38
49,62133	40
49,63200	38
49,64267	42
49,65333	40
49,66400	36
49,67467	34
49,68533	40
49,69600	30
49,70667	33
49,71733	34
49,72800	41
49,73867	45
49,74933	32
49,76000	29
49,77067	25
49,78133	29
49,79200	31
49,80267	29
49,81333	25
49,82400	34
49,83467	38
49,84533	28
49,85600	37
49,86667	29
49,87733	32
49,88800	25
49,89867	22
49,90933	27
49,92000	33
49,93067	26
49,94133	18
49,95200	21
49,96267	23
49,97333	23
49,98400	25
49,99467	25
50,00533	26


