[Header]
Application Name	LabSolutions
Version	5.73
Data File Name	C:\Users\Public\DADOS\Ricardo borges\RMBorges\26.02.25\E PIGALOCATECHIN.lcd
Output Date	26/02/2025
Output Time	15:17:12

[File Information]
Type	Data File
Generated	26/02/2025 14:26:45
Generated by	System Administrator
Modified	26/02/2025 15:17:12
Modified by	System Administrator

[Sample Information]
Operator Name	System Administrator
Acquired	26/02/2025 14:27:09
Sample Type	0:Unknown
Level	0
Sample Name	E PIGALOCATECHIN
Sample ID	E PIGALOCATECHIN
ISTD Amount1	1
ISTD Amount2	1
ISTD Amount3	1
ISTD Amount4	1
ISTD Amount5	1
ISTD Amount6	1
ISTD Amount7	1
ISTD Amount8	1
ISTD Amount9	1
ISTD Amount10	1
ISTD Amount11	1
ISTD Amount12	1
ISTD Amount13	1
ISTD Amount14	1
ISTD Amount15	1
ISTD Amount16	1
ISTD Amount17	1
ISTD Amount18	1
ISTD Amount19	1
ISTD Amount20	1
ISTD Amount21	1
ISTD Amount22	1
ISTD Amount23	1
ISTD Amount24	1
ISTD Amount25	1
ISTD Amount26	1
ISTD Amount27	1
ISTD Amount28	1
ISTD Amount29	1
ISTD Amount30	1
ISTD Amount31	1
ISTD Amount32	1
Sample Amount	1
Dilution Factor	1
Vial#	3
Injection Volume	10

[Original Files]
Data File	C:\Users\Public\DADOS\Ricardo borges\RMBorges\26.02.25\E PIGALOCATECHIN.lcd
Method File	C:\Users\Public\MÉTODOS\MÉTODOS HPLC AUTOMÁTICO\RICARDO BORGES\RMBorges\sciffee\experimental 1 - pool.lcm
Batch File	C:\Users\Public\DADOS\Ricardo borges\RMBorges\26.02.25\BATCH_RM_MIX POOL_26.02.2025.lcb
Report Format File	C:\LabSolutions\System\Default.lsr

[File Description]


[Configuration]
Instrument Name	HPLC analítico (automático)
Instrument #	1
Line #	1
# of Detectors	1
Detector ID	PDA
Detector Name	PDA
# of Channels	1

[Peak Table(PDA-Ch1)]
# of Peaks	13
Peak#	R.Time	I.Time	F.Time	Area	Height	A/H	Conc.	Mark	ID#	Name	k'	Plate #	Plate Ht.	Tailing	Resolution	Sep.Factor	Area Ratio	Height Ratio	Conc. %	Norm Conc.
1	1,665	1,504	1,835	99799	16693	5,979	0,000	   			0,000	1612	93,072	1,028	0,000	0,000	0	0	0,000	0,000
2	8,640	8,277	9,088	312643	23204	13,474	0,000	   			4,188	9110	16,465	1,041	26,418	0,000	0	0	0,000	0,000
3	29,664	29,163	29,888	2022	95	21,260	0,000	   			16,812	45700	3,282	0,689	45,847	4,014	0	0	0,000	0,000
4	35,073	32,864	35,413	1560821	116370	13,413	0,000	   			20,060	572608	0,262	0,000	14,611	1,193	0	0	0,000	0,000
5	35,488	35,413	35,563	182506	24298	7,511	0,000	 V 			20,309	115583	1,298	0,000	1,374	1,012	0	0	0,000	0,000
6	35,596	35,563	35,733	160522	18922	8,483	0,000	 V 			20,374	24049	6,237	0,000	0,162	1,003	0	0	0,000	0,000
7	35,854	35,733	35,979	200672	15129	13,264	0,000	 V 			20,529	20542	7,302	0,000	0,269	1,008	0	0	0,000	0,000
8	36,034	35,979	36,096	83154	11993	6,933	0,000	 V 			20,638	173	865,258	0,000	0,030	1,005	0	0	0,000	0,000
9	36,337	36,096	36,459	254702	12716	20,031	0,000	 V 			20,819	4674	32,091	0,000	0,046	1,009	0	0	0,000	0,000
10	36,800	36,459	36,843	232095	10153	22,859	0,000	 V 			21,097	279	538,403	0,000	0,085	1,013	0	0	0,000	0,000
11	37,038	36,843	37,109	163925	11110	14,755	0,000	 V 			21,240	11426	13,128	0,000	0,047	1,007	0	0	0,000	0,000
12	37,544	37,109	38,389	518388	10311	50,277	0,000	 V 			21,544	4773	31,425	0,000	0,284	1,014	0	0	0,000	0,000
13	38,904	38,624	39,957	1163305	38629	30,115	0,000	   			22,361	310577	0,483	2,636	1,109	1,038	0	0	0,000	0,000

[Compound Results(PDA)]
# of IDs	0

[PDA Multi Chromatogram(Ch1)]
# of Points	      4689
Interval(msec)	640
Start Time(min)	0
End Time(min)	50,0053
Intensity Units	mAU
Intensity Multiplier	1
Type	MultiChrom
Wavelength(nm)	254
Bandwidth(nm)	4
R.Time (min)	Intensity
0,00000	0
0,01067	0
0,02133	0
0,03200	0
0,04267	0
0,05333	0
0,06400	0
0,07467	0
0,08533	0
0,09600	0
0,10667	-6
0,11733	-11
0,12800	-11
0,13867	-8
0,14933	-13
0,16000	-25
0,17067	-23
0,18133	-25
0,19200	-29
0,20267	-22
0,21333	-18
0,22400	-17
0,23467	-13
0,24533	-21
0,25600	-16
0,26667	-21
0,27733	-19
0,28800	-18
0,29867	-10
0,30933	-11
0,32000	-7
0,33067	-14
0,34133	-17
0,35200	-21
0,36267	-17
0,37333	-11
0,38400	-9
0,39467	-14
0,40533	-6
0,41600	-1
0,42667	6
0,43733	-6
0,44800	-10
0,45867	-18
0,46933	-19
0,48000	-11
0,49067	-8
0,50133	-10
0,51200	-3
0,52267	-2
0,53333	-4
0,54400	-11
0,55467	3
0,56533	-13
0,57600	-12
0,58667	-13
0,59733	-7
0,60800	-14
0,61867	-8
0,62933	-11
0,64000	-9
0,65067	-16
0,66133	-17
0,67200	-19
0,68267	-13
0,69333	-14
0,70400	-10
0,71467	-12
0,72533	-5
0,73600	-1
0,74667	-7
0,75733	-6
0,76800	-13
0,77867	-14
0,78933	-22
0,80000	-14
0,81067	-8
0,82133	-12
0,83200	-6
0,84267	-17
0,85333	-19
0,86400	-19
0,87467	-17
0,88533	-13
0,89600	-10
0,90667	-14
0,91733	-16
0,92800	-13
0,93867	-10
0,94933	-11
0,96000	-4
0,97067	-4
0,98133	-7
0,99200	-10
1,00267	-15
1,01333	-8
1,02400	-17
1,03467	-16
1,04533	-21
1,05600	-20
1,06667	-12
1,07733	-17
1,08800	-10
1,09867	-14
1,10933	-14
1,12000	-15
1,13067	-18
1,14133	-15
1,15200	-11
1,16267	-9
1,17333	-12
1,18400	-14
1,19467	-17
1,20533	-15
1,21600	-19
1,22667	-14
1,23733	-19
1,24800	-22
1,25867	-23
1,26933	-21
1,28000	-21
1,29067	-15
1,30133	-15
1,31200	-18
1,32267	-18
1,33333	-17
1,34400	-16
1,35467	-15
1,36533	-17
1,37600	-19
1,38667	-17
1,39733	-17
1,40800	-15
1,41867	-30
1,42933	-34
1,44000	-24
1,45067	-17
1,46133	-16
1,47200	-15
1,48267	-22
1,49333	-20
1,50400	-22
1,51467	-15
1,52533	-12
1,53600	6
1,54667	24
1,55733	55
1,56800	83
1,57867	105
1,58933	116
1,60000	103
1,61067	87
1,62133	99
1,63200	1286
1,64267	6881
1,65333	11946
1,66400	13106
1,67467	12420
1,68533	11041
1,69600	9475
1,70667	7848
1,71733	5884
1,72800	3532
1,73867	1186
1,74933	-777
1,76000	-2292
1,77067	-3508
1,78133	-4529
1,79200	-5358
1,80267	-5969
1,81333	-6475
1,82400	-6981
1,83467	-7326
1,84533	-7345
1,85600	-6947
1,86667	-6156
1,87733	-5101
1,88800	-3979
1,89867	-2947
1,90933	-2089
1,92000	-1424
1,93067	-960
1,94133	-641
1,95200	-427
1,96267	-287
1,97333	-196
1,98400	-137
1,99467	-99
2,00533	-80
2,01600	-65
2,02667	-48
2,03733	-35
2,04800	-33
2,05867	-37
2,06933	-32
2,08000	-15
2,09067	-17
2,10133	-23
2,11200	-21
2,12267	-13
2,13333	-17
2,14400	-20
2,15467	-23
2,16533	-20
2,17600	-24
2,18667	-20
2,19733	-15
2,20800	-19
2,21867	-15
2,22933	-4
2,24000	-6
2,25067	-5
2,26133	10
2,27200	12
2,28267	5
2,29333	4
2,30400	5
2,31467	3
2,32533	11
2,33600	8
2,34667	5
2,35733	5
2,36800	-1
2,37867	1
2,38933	-11
2,40000	-7
2,41067	-3
2,42133	-0
2,43200	-4
2,44267	2
2,45333	5
2,46400	3
2,47467	1
2,48533	-5
2,49600	-5
2,50667	3
2,51733	2
2,52800	7
2,53867	11
2,54933	9
2,56000	10
2,57067	6
2,58133	12
2,59200	8
2,60267	8
2,61333	3
2,62400	0
2,63467	-14
2,64533	-34
2,65600	-78
2,66667	-134
2,67733	-204
2,68800	-285
2,69867	-371
2,70933	-434
2,72000	-480
2,73067	-503
2,74133	-498
2,75200	-472
2,76267	-432
2,77333	-377
2,78400	-309
2,79467	-248
2,80533	-192
2,81600	-144
2,82667	-93
2,83733	-59
2,84800	-35
2,85867	-16
2,86933	-1
2,88000	8
2,89067	21
2,90133	22
2,91200	19
2,92267	25
2,93333	21
2,94400	18
2,95467	22
2,96533	20
2,97600	25
2,98667	25
2,99733	31
3,00800	34
3,01867	31
3,02933	39
3,04000	40
3,05067	38
3,06133	43
3,07200	38
3,08267	37
3,09333	43
3,10400	49
3,11467	38
3,12533	41
3,13600	41
3,14667	42
3,15733	49
3,16800	44
3,17867	41
3,18933	49
3,20000	43
3,21067	47
3,22133	42
3,23200	41
3,24267	38
3,25333	43
3,26400	42
3,27467	42
3,28533	40
3,29600	37
3,30667	40
3,31733	39
3,32800	36
3,33867	33
3,34933	41
3,36000	43
3,37067	43
3,38133	44
3,39200	39
3,40267	35
3,41333	29
3,42400	37
3,43467	49
3,44533	52
3,45600	60
3,46667	74
3,47733	94
3,48800	115
3,49867	107
3,50933	90
3,52000	74
3,53067	50
3,54133	37
3,55200	17
3,56267	7
3,57333	-2
3,58400	-6
3,59467	-9
3,60533	-9
3,61600	6
3,62667	15
3,63733	13
3,64800	12
3,65867	16
3,66933	28
3,68000	35
3,69067	41
3,70133	40
3,71200	45
3,72267	50
3,73333	49
3,74400	55
3,75467	58
3,76533	60
3,77600	74
3,78667	72
3,79733	77
3,80800	77
3,81867	77
3,82933	74
3,84000	71
3,85067	77
3,86133	74
3,87200	78
3,88267	67
3,89333	72
3,90400	78
3,91467	77
3,92533	72
3,93600	64
3,94667	69
3,95733	72
3,96800	70
3,97867	71
3,98933	74
4,00000	68
4,01067	72
4,02133	67
4,03200	69
4,04267	72
4,05333	78
4,06400	76
4,07467	73
4,08533	67
4,09600	69
4,10667	70
4,11733	77
4,12800	78
4,13867	83
4,14933	80
4,16000	86
4,17067	83
4,18133	77
4,19200	79
4,20267	71
4,21333	74
4,22400	67
4,23467	73
4,24533	81
4,25600	71
4,26667	74
4,27733	74
4,28800	76
4,29867	72
4,30933	67
4,32000	72
4,33067	65
4,34133	65
4,35200	62
4,36267	67
4,37333	81
4,38400	81
4,39467	84
4,40533	75
4,41600	82
4,42667	77
4,43733	80
4,44800	77
4,45867	83
4,46933	90
4,48000	88
4,49067	88
4,50133	91
4,51200	92
4,52267	96
4,53333	96
4,54400	93
4,55467	96
4,56533	98
4,57600	100
4,58667	101
4,59733	104
4,60800	100
4,61867	106
4,62933	106
4,64000	110
4,65067	114
4,66133	112
4,67200	110
4,68267	115
4,69333	115
4,70400	114
4,71467	122
4,72533	131
4,73600	133
4,74667	125
4,75733	121
4,76800	138
4,77867	144
4,78933	146
4,80000	152
4,81067	150
4,82133	149
4,83200	155
4,84267	152
4,85333	155
4,86400	159
4,87467	153
4,88533	162
4,89600	173
4,90667	172
4,91733	171
4,92800	165
4,93867	168
4,94933	174
4,96000	181
4,97067	185
4,98133	181
4,99200	186
5,00267	194
5,01333	197
5,02400	202
5,03467	205
5,04533	211
5,05600	217
5,06667	228
5,07733	227
5,08800	236
5,09867	235
5,10933	247
5,12000	242
5,13067	244
5,14133	248
5,15200	253
5,16267	260
5,17333	265
5,18400	267
5,19467	269
5,20533	279
5,21600	278
5,22667	277
5,23733	283
5,24800	292
5,25867	285
5,26933	288
5,28000	296
5,29067	304
5,30133	306
5,31200	303
5,32267	313
5,33333	316
5,34400	324
5,35467	330
5,36533	337
5,37600	337
5,38667	333
5,39733	343
5,40800	348
5,41867	354
5,42933	353
5,44000	359
5,45067	369
5,46133	363
5,47200	360
5,48267	372
5,49333	371
5,50400	378
5,51467	379
5,52533	378
5,53600	391
5,54667	394
5,55733	399
5,56800	399
5,57867	402
5,58933	398
5,60000	396
5,61067	408
5,62133	408
5,63200	420
5,64267	416
5,65333	417
5,66400	423
5,67467	429
5,68533	432
5,69600	437
5,70667	442
5,71733	447
5,72800	447
5,73867	445
5,74933	453
5,76000	456
5,77067	460
5,78133	469
5,79200	471
5,80267	473
5,81333	473
5,82400	476
5,83467	488
5,84533	480
5,85600	480
5,86667	481
5,87733	500
5,88800	497
5,89867	494
5,90933	496
5,92000	497
5,93067	498
5,94133	507
5,95200	499
5,96267	510
5,97333	510
5,98400	513
5,99467	515
6,00533	514
6,01600	515
6,02667	513
6,03733	527
6,04800	524
6,05867	528
6,06933	527
6,08000	526
6,09067	530
6,10133	531
6,11200	538
6,12267	539
6,13333	546
6,14400	550
6,15467	552
6,16533	545
6,17600	549
6,18667	557
6,19733	552
6,20800	558
6,21867	561
6,22933	560
6,24000	562
6,25067	569
6,26133	573
6,27200	566
6,28267	578
6,29333	590
6,30400	585
6,31467	585
6,32533	585
6,33600	586
6,34667	588
6,35733	596
6,36800	601
6,37867	601
6,38933	610
6,40000	612
6,41067	616
6,42133	628
6,43200	628
6,44267	642
6,45333	649
6,46400	653
6,47467	655
6,48533	654
6,49600	668
6,50667	670
6,51733	659
6,52800	664
6,53867	667
6,54933	664
6,56000	662
6,57067	662
6,58133	668
6,59200	661
6,60267	663
6,61333	657
6,62400	665
6,63467	674
6,64533	663
6,65600	665
6,66667	668
6,67733	671
6,68800	672
6,69867	683
6,70933	682
6,72000	686
6,73067	680
6,74133	682
6,75200	693
6,76267	701
6,77333	710
6,78400	702
6,79467	703
6,80533	704
6,81600	712
6,82667	714
6,83733	717
6,84800	725
6,85867	722
6,86933	722
6,88000	727
6,89067	731
6,90133	731
6,91200	733
6,92267	736
6,93333	740
6,94400	733
6,95467	742
6,96533	739
6,97600	743
6,98667	752
6,99733	745
7,00800	756
7,01867	758
7,02933	755
7,04000	762
7,05067	763
7,06133	764
7,07200	777
7,08267	781
7,09333	786
7,10400	778
7,11467	782
7,12533	777
7,13600	780
7,14667	789
7,15733	792
7,16800	798
7,17867	794
7,18933	797
7,20000	801
7,21067	805
7,22133	806
7,23200	813
7,24267	817
7,25333	813
7,26400	815
7,27467	824
7,28533	824
7,29600	825
7,30667	834
7,31733	838
7,32800	841
7,33867	849
7,34933	845
7,36000	846
7,37067	842
7,38133	846
7,39200	855
7,40267	862
7,41333	866
7,42400	872
7,43467	876
7,44533	876
7,45600	872
7,46667	885
7,47733	882
7,48800	886
7,49867	889
7,50933	894
7,52000	897
7,53067	897
7,54133	900
7,55200	906
7,56267	909
7,57333	909
7,58400	912
7,59467	917
7,60533	915
7,61600	920
7,62667	935
7,63733	932
7,64800	934
7,65867	935
7,66933	934
7,68000	940
7,69067	947
7,70133	956
7,71200	953
7,72267	950
7,73333	954
7,74400	960
7,75467	961
7,76533	961
7,77600	972
7,78667	977
7,79733	981
7,80800	981
7,81867	983
7,82933	979
7,84000	985
7,85067	981
7,86133	986
7,87200	991
7,88267	1000
7,89333	1006
7,90400	1004
7,91467	995
7,92533	999
7,93600	998
7,94667	1006
7,95733	1013
7,96800	1015
7,97867	1004
7,98933	1011
8,00000	1010
8,01067	1017
8,02133	1023
8,03200	1030
8,04267	1032
8,05333	1039
8,06400	1045
8,07467	1040
8,08533	1038
8,09600	1044
8,10667	1038
8,11733	1048
8,12800	1054
8,13867	1054
8,14933	1056
8,16000	1055
8,17067	1060
8,18133	1063
8,19200	1069
8,20267	1066
8,21333	1070
8,22400	1078
8,23467	1083
8,24533	1086
8,25600	1090
8,26667	1088
8,27733	1088
8,28800	1096
8,29867	1102
8,30933	1103
8,32000	1108
8,33067	1117
8,34133	1128
8,35200	1142
8,36267	1163
8,37333	1208
8,38400	1259
8,39467	1349
8,40533	1474
8,41600	1665
8,42667	1935
8,43733	2308
8,44800	2809
8,45867	3467
8,46933	4312
8,48000	5363
8,49067	6608
8,50133	8043
8,51200	9639
8,52267	11361
8,53333	13147
8,54400	14963
8,55467	16731
8,56533	18381
8,57600	19894
8,58667	21212
8,59733	22324
8,60800	23209
8,61867	23855
8,62933	24257
8,64000	24393
8,65067	24250
8,66133	23823
8,67200	23115
8,68267	22130
8,69333	20901
8,70400	19454
8,71467	17832
8,72533	16101
8,73600	14328
8,74667	12577
8,75733	10893
8,76800	9330
8,77867	7925
8,78933	6691
8,80000	5636
8,81067	4743
8,82133	4013
8,83200	3424
8,84267	2950
8,85333	2575
8,86400	2285
8,87467	2056
8,88533	1887
8,89600	1743
8,90667	1648
8,91733	1564
8,92800	1516
8,93867	1470
8,94933	1433
8,96000	1392
8,97067	1369
8,98133	1356
8,99200	1351
9,00267	1338
9,01333	1335
9,02400	1332
9,03467	1326
9,04533	1320
9,05600	1317
9,06667	1318
9,07733	1317
9,08800	1314
9,09867	1318
9,10933	1312
9,12000	1315
9,13067	1315
9,14133	1314
9,15200	1317
9,16267	1316
9,17333	1323
9,18400	1321
9,19467	1321
9,20533	1327
9,21600	1326
9,22667	1332
9,23733	1332
9,24800	1333
9,25867	1340
9,26933	1342
9,28000	1341
9,29067	1340
9,30133	1342
9,31200	1345
9,32267	1353
9,33333	1353
9,34400	1354
9,35467	1352
9,36533	1353
9,37600	1353
9,38667	1345
9,39733	1345
9,40800	1353
9,41867	1352
9,42933	1356
9,44000	1353
9,45067	1359
9,46133	1361
9,47200	1367
9,48267	1376
9,49333	1365
9,50400	1362
9,51467	1366
9,52533	1369
9,53600	1378
9,54667	1384
9,55733	1386
9,56800	1393
9,57867	1392
9,58933	1395
9,60000	1401
9,61067	1404
9,62133	1402
9,63200	1413
9,64267	1423
9,65333	1415
9,66400	1429
9,67467	1432
9,68533	1428
9,69600	1432
9,70667	1437
9,71733	1445
9,72800	1447
9,73867	1456
9,74933	1449
9,76000	1454
9,77067	1442
9,78133	1452
9,79200	1456
9,80267	1464
9,81333	1464
9,82400	1456
9,83467	1462
9,84533	1460
9,85600	1470
9,86667	1475
9,87733	1472
9,88800	1474
9,89867	1477
9,90933	1487
9,92000	1488
9,93067	1485
9,94133	1491
9,95200	1495
9,96267	1491
9,97333	1491
9,98400	1492
9,99467	1491
10,00533	1491
10,01600	1499
10,02667	1502
10,03733	1502
10,04800	1505
10,05867	1509
10,06933	1506
10,08000	1509
10,09067	1516
10,10133	1522
10,11200	1520
10,12267	1527
10,13333	1534
10,14400	1532
10,15467	1535
10,16533	1538
10,17600	1536
10,18667	1543
10,19733	1542
10,20800	1547
10,21867	1547
10,22933	1549
10,24000	1552
10,25067	1559
10,26133	1563
10,27200	1565
10,28267	1563
10,29333	1570
10,30400	1573
10,31467	1572
10,32533	1569
10,33600	1576
10,34667	1582
10,35733	1587
10,36800	1588
10,37867	1588
10,38933	1593
10,40000	1603
10,41067	1608
10,42133	1606
10,43200	1610
10,44267	1609
10,45333	1621
10,46400	1629
10,47467	1624
10,48533	1623
10,49600	1628
10,50667	1641
10,51733	1638
10,52800	1640
10,53867	1643
10,54933	1654
10,56000	1649
10,57067	1653
10,58133	1655
10,59200	1661
10,60267	1668
10,61333	1671
10,62400	1667
10,63467	1668
10,64533	1674
10,65600	1675
10,66667	1682
10,67733	1679
10,68800	1684
10,69867	1686
10,70933	1684
10,72000	1686
10,73067	1689
10,74133	1698
10,75200	1702
10,76267	1710
10,77333	1706
10,78400	1713
10,79467	1714
10,80533	1716
10,81600	1718
10,82667	1717
10,83733	1725
10,84800	1725
10,85867	1730
10,86933	1738
10,88000	1748
10,89067	1741
10,90133	1747
10,91200	1748
10,92267	1753
10,93333	1756
10,94400	1754
10,95467	1762
10,96533	1770
10,97600	1767
10,98667	1767
10,99733	1779
11,00800	1777
11,01867	1781
11,02933	1787
11,04000	1783
11,05067	1791
11,06133	1793
11,07200	1792
11,08267	1793
11,09333	1800
11,10400	1805
11,11467	1805
11,12533	1806
11,13600	1802
11,14667	1812
11,15733	1816
11,16800	1812
11,17867	1819
11,18933	1826
11,20000	1832
11,21067	1832
11,22133	1835
11,23200	1834
11,24267	1840
11,25333	1847
11,26400	1842
11,27467	1850
11,28533	1850
11,29600	1860
11,30667	1861
11,31733	1867
11,32800	1860
11,33867	1862
11,34933	1879
11,36000	1877
11,37067	1874
11,38133	1886
11,39200	1890
11,40267	1892
11,41333	1895
11,42400	1898
11,43467	1900
11,44533	1901
11,45600	1903
11,46667	1912
11,47733	1916
11,48800	1919
11,49867	1919
11,50933	1935
11,52000	1931
11,53067	1943
11,54133	1940
11,55200	1940
11,56267	1948
11,57333	1947
11,58400	1952
11,59467	1960
11,60533	1965
11,61600	1972
11,62667	1976
11,63733	1973
11,64800	1970
11,65867	1982
11,66933	1987
11,68000	1989
11,69067	1987
11,70133	1994
11,71200	1996
11,72267	2001
11,73333	2002
11,74400	2000
11,75467	2011
11,76533	2018
11,77600	2023
11,78667	2019
11,79733	2020
11,80800	2031
11,81867	2039
11,82933	2040
11,84000	2042
11,85067	2041
11,86133	2052
11,87200	2050
11,88267	2057
11,89333	2052
11,90400	2064
11,91467	2070
11,92533	2066
11,93600	2071
11,94667	2082
11,95733	2082
11,96800	2090
11,97867	2086
11,98933	2092
12,00000	2096
12,01067	2091
12,02133	2088
12,03200	2095
12,04267	2104
12,05333	2103
12,06400	2100
12,07467	2108
12,08533	2109
12,09600	2104
12,10667	2108
12,11733	2114
12,12800	2123
12,13867	2130
12,14933	2129
12,16000	2131
12,17067	2134
12,18133	2142
12,19200	2143
12,20267	2143
12,21333	2151
12,22400	2157
12,23467	2159
12,24533	2161
12,25600	2168
12,26667	2177
12,27733	2179
12,28800	2177
12,29867	2188
12,30933	2180
12,32000	2193
12,33067	2193
12,34133	2194
12,35200	2196
12,36267	2203
12,37333	2208
12,38400	2211
12,39467	2210
12,40533	2210
12,41600	2222
12,42667	2221
12,43733	2220
12,44800	2225
12,45867	2230
12,46933	2238
12,48000	2240
12,49067	2247
12,50133	2251
12,51200	2256
12,52267	2271
12,53333	2269
12,54400	2275
12,55467	2283
12,56533	2278
12,57600	2281
12,58667	2292
12,59733	2292
12,60800	2298
12,61867	2297
12,62933	2303
12,64000	2307
12,65067	2322
12,66133	2333
12,67200	2326
12,68267	2338
12,69333	2341
12,70400	2334
12,71467	2348
12,72533	2347
12,73600	2345
12,74667	2354
12,75733	2359
12,76800	2354
12,77867	2343
12,78933	2357
12,80000	2357
12,81067	2369
12,82133	2372
12,83200	2371
12,84267	2372
12,85333	2378
12,86400	2378
12,87467	2382
12,88533	2383
12,89600	2384
12,90667	2397
12,91733	2406
12,92800	2401
12,93867	2404
12,94933	2398
12,96000	2404
12,97067	2412
12,98133	2420
12,99200	2421
13,00267	2422
13,01333	2419
13,02400	2427
13,03467	2430
13,04533	2439
13,05600	2451
13,06667	2455
13,07733	2454
13,08800	2452
13,09867	2452
13,10933	2456
13,12000	2463
13,13067	2463
13,14133	2471
13,15200	2478
13,16267	2476
13,17333	2482
13,18400	2496
13,19467	2490
13,20533	2493
13,21600	2497
13,22667	2503
13,23733	2512
13,24800	2506
13,25867	2518
13,26933	2524
13,28000	2528
13,29067	2534
13,30133	2540
13,31200	2543
13,32267	2547
13,33333	2555
13,34400	2556
13,35467	2556
13,36533	2556
13,37600	2560
13,38667	2563
13,39733	2566
13,40800	2563
13,41867	2568
13,42933	2574
13,44000	2577
13,45067	2578
13,46133	2578
13,47200	2587
13,48267	2596
13,49333	2600
13,50400	2601
13,51467	2603
13,52533	2604
13,53600	2614
13,54667	2622
13,55733	2614
13,56800	2620
13,57867	2620
13,58933	2620
13,60000	2636
13,61067	2627
13,62133	2632
13,63200	2635
13,64267	2642
13,65333	2645
13,66400	2655
13,67467	2666
13,68533	2663
13,69600	2663
13,70667	2673
13,71733	2676
13,72800	2679
13,73867	2682
13,74933	2694
13,76000	2697
13,77067	2702
13,78133	2705
13,79200	2701
13,80267	2709
13,81333	2715
13,82400	2717
13,83467	2724
13,84533	2734
13,85600	2737
13,86667	2736
13,87733	2735
13,88800	2746
13,89867	2748
13,90933	2758
13,92000	2756
13,93067	2764
13,94133	2766
13,95200	2777
13,96267	2780
13,97333	2798
13,98400	2793
13,99467	2794
14,00533	2797
14,01600	2799
14,02667	2800
14,03733	2816
14,04800	2809
14,05867	2812
14,06933	2821
14,08000	2828
14,09067	2828
14,10133	2823
14,11200	2826
14,12267	2831
14,13333	2845
14,14400	2847
14,15467	2854
14,16533	2856
14,17600	2861
14,18667	2872
14,19733	2871
14,20800	2875
14,21867	2881
14,22933	2896
14,24000	2895
14,25067	2889
14,26133	2892
14,27200	2902
14,28267	2909
14,29333	2910
14,30400	2914
14,31467	2911
14,32533	2922
14,33600	2936
14,34667	2952
14,35733	2948
14,36800	2952
14,37867	2948
14,38933	2954
14,40000	2967
14,41067	2973
14,42133	2979
14,43200	2976
14,44267	2984
14,45333	2986
14,46400	2992
14,47467	2999
14,48533	3002
14,49600	3007
14,50667	3019
14,51733	3010
14,52800	3017
14,53867	3025
14,54933	3036
14,56000	3036
14,57067	3036
14,58133	3043
14,59200	3049
14,60267	3059
14,61333	3067
14,62400	3075
14,63467	3074
14,64533	3083
14,65600	3080
14,66667	3093
14,67733	3101
14,68800	3102
14,69867	3107
14,70933	3115
14,72000	3112
14,73067	3124
14,74133	3132
14,75200	3134
14,76267	3137
14,77333	3139
14,78400	3147
14,79467	3144
14,80533	3146
14,81600	3159
14,82667	3162
14,83733	3172
14,84800	3176
14,85867	3174
14,86933	3176
14,88000	3189
14,89067	3194
14,90133	3194
14,91200	3200
14,92267	3199
14,93333	3209
14,94400	3214
14,95467	3223
14,96533	3234
14,97600	3241
14,98667	3242
14,99733	3247
15,00800	3249
15,01867	3257
15,02933	3256
15,04000	3257
15,05067	3261
15,06133	3270
15,07200	3266
15,08267	3278
15,09333	3282
15,10400	3289
15,11467	3299
15,12533	3302
15,13600	3306
15,14667	3305
15,15733	3312
15,16800	3320
15,17867	3328
15,18933	3328
15,20000	3323
15,21067	3327
15,22133	3334
15,23200	3344
15,24267	3353
15,25333	3352
15,26400	3351
15,27467	3360
15,28533	3361
15,29600	3364
15,30667	3375
15,31733	3375
15,32800	3378
15,33867	3381
15,34933	3386
15,36000	3396
15,37067	3396
15,38133	3407
15,39200	3408
15,40267	3407
15,41333	3419
15,42400	3418
15,43467	3424
15,44533	3437
15,45600	3439
15,46667	3445
15,47733	3452
15,48800	3456
15,49867	3462
15,50933	3460
15,52000	3468
15,53067	3475
15,54133	3486
15,55200	3490
15,56267	3494
15,57333	3498
15,58400	3503
15,59467	3499
15,60533	3495
15,61600	3508
15,62667	3514
15,63733	3509
15,64800	3519
15,65867	3516
15,66933	3522
15,68000	3525
15,69067	3531
15,70133	3534
15,71200	3535
15,72267	3544
15,73333	3553
15,74400	3555
15,75467	3557
15,76533	3561
15,77600	3568
15,78667	3568
15,79733	3571
15,80800	3570
15,81867	3582
15,82933	3585
15,84000	3590
15,85067	3595
15,86133	3596
15,87200	3605
15,88267	3615
15,89333	3608
15,90400	3615
15,91467	3616
15,92533	3631
15,93600	3631
15,94667	3628
15,95733	3626
15,96800	3638
15,97867	3640
15,98933	3643
16,00000	3649
16,01067	3658
16,02133	3662
16,03200	3665
16,04267	3664
16,05333	3676
16,06400	3676
16,07467	3676
16,08533	3673
16,09600	3692
16,10667	3693
16,11733	3697
16,12800	3701
16,13867	3701
16,14933	3709
16,16000	3706
16,17067	3719
16,18133	3733
16,19200	3736
16,20267	3738
16,21333	3746
16,22400	3751
16,23467	3752
16,24533	3753
16,25600	3758
16,26667	3765
16,27733	3770
16,28800	3769
16,29867	3774
16,30933	3781
16,32000	3786
16,33067	3804
16,34133	3804
16,35200	3805
16,36267	3803
16,37333	3807
16,38400	3817
16,39467	3812
16,40533	3816
16,41600	3820
16,42667	3834
16,43733	3837
16,44800	3835
16,45867	3838
16,46933	3844
16,48000	3861
16,49067	3867
16,50133	3871
16,51200	3864
16,52267	3867
16,53333	3876
16,54400	3884
16,55467	3889
16,56533	3894
16,57600	3895
16,58667	3906
16,59733	3908
16,60800	3908
16,61867	3910
16,62933	3914
16,64000	3922
16,65067	3922
16,66133	3924
16,67200	3933
16,68267	3943
16,69333	3942
16,70400	3950
16,71467	3950
16,72533	3955
16,73600	3954
16,74667	3961
16,75733	3963
16,76800	3974
16,77867	3981
16,78933	3980
16,80000	3986
16,81067	3991
16,82133	3990
16,83200	4001
16,84267	4011
16,85333	4013
16,86400	4016
16,87467	4021
16,88533	4020
16,89600	4025
16,90667	4025
16,91733	4030
16,92800	4040
16,93867	4051
16,94933	4049
16,96000	4057
16,97067	4067
16,98133	4072
16,99200	4085
17,00267	4081
17,01333	4091
17,02400	4097
17,03467	4102
17,04533	4103
17,05600	4113
17,06667	4110
17,07733	4130
17,08800	4129
17,09867	4128
17,10933	4138
17,12000	4132
17,13067	4134
17,14133	4146
17,15200	4148
17,16267	4145
17,17333	4146
17,18400	4147
17,19467	4149
17,20533	4153
17,21600	4162
17,22667	4170
17,23733	4182
17,24800	4177
17,25867	4178
17,26933	4186
17,28000	4199
17,29067	4203
17,30133	4198
17,31200	4206
17,32267	4219
17,33333	4225
17,34400	4223
17,35467	4223
17,36533	4231
17,37600	4241
17,38667	4246
17,39733	4249
17,40800	4247
17,41867	4245
17,42933	4252
17,44000	4257
17,45067	4258
17,46133	4267
17,47200	4272
17,48267	4281
17,49333	4277
17,50400	4281
17,51467	4291
17,52533	4298
17,53600	4306
17,54667	4302
17,55733	4306
17,56800	4304
17,57867	4313
17,58933	4319
17,60000	4330
17,61067	4327
17,62133	4335
17,63200	4333
17,64267	4342
17,65333	4350
17,66400	4357
17,67467	4361
17,68533	4359
17,69600	4367
17,70667	4375
17,71733	4376
17,72800	4386
17,73867	4383
17,74933	4388
17,76000	4389
17,77067	4392
17,78133	4400
17,79200	4397
17,80267	4394
17,81333	4397
17,82400	4409
17,83467	4416
17,84533	4422
17,85600	4418
17,86667	4421
17,87733	4424
17,88800	4431
17,89867	4438
17,90933	4447
17,92000	4447
17,93067	4453
17,94133	4456
17,95200	4465
17,96267	4472
17,97333	4473
17,98400	4473
17,99467	4485
18,00533	4496
18,01600	4504
18,02667	4513
18,03733	4519
18,04800	4524
18,05867	4531
18,06933	4535
18,08000	4535
18,09067	4538
18,10133	4552
18,11200	4554
18,12267	4552
18,13333	4560
18,14400	4555
18,15467	4563
18,16533	4574
18,17600	4577
18,18667	4586
18,19733	4593
18,20800	4599
18,21867	4601
18,22933	4598
18,24000	4602
18,25067	4611
18,26133	4618
18,27200	4627
18,28267	4628
18,29333	4638
18,30400	4642
18,31467	4645
18,32533	4650
18,33600	4657
18,34667	4661
18,35733	4673
18,36800	4678
18,37867	4681
18,38933	4687
18,40000	4691
18,41067	4688
18,42133	4697
18,43200	4709
18,44267	4707
18,45333	4720
18,46400	4721
18,47467	4721
18,48533	4730
18,49600	4731
18,50667	4743
18,51733	4741
18,52800	4747
18,53867	4760
18,54933	4762
18,56000	4763
18,57067	4767
18,58133	4775
18,59200	4774
18,60267	4784
18,61333	4783
18,62400	4791
18,63467	4800
18,64533	4793
18,65600	4809
18,66667	4814
18,67733	4821
18,68800	4826
18,69867	4827
18,70933	4823
18,72000	4833
18,73067	4832
18,74133	4840
18,75200	4848
18,76267	4851
18,77333	4860
18,78400	4863
18,79467	4875
18,80533	4882
18,81600	4876
18,82667	4881
18,83733	4889
18,84800	4890
18,85867	4894
18,86933	4902
18,88000	4907
18,89067	4899
18,90133	4907
18,91200	4911
18,92267	4916
18,93333	4925
18,94400	4925
18,95467	4936
18,96533	4941
18,97600	4944
18,98667	4953
18,99733	4951
19,00800	4957
19,01867	4962
19,02933	4962
19,04000	4969
19,05067	4968
19,06133	4977
19,07200	4981
19,08267	4988
19,09333	4994
19,10400	4999
19,11467	5005
19,12533	5008
19,13600	5008
19,14667	5013
19,15733	5019
19,16800	5029
19,17867	5039
19,18933	5040
19,20000	5045
19,21067	5041
19,22133	5042
19,23200	5052
19,24267	5053
19,25333	5054
19,26400	5061
19,27467	5063
19,28533	5067
19,29600	5068
19,30667	5070
19,31733	5072
19,32800	5075
19,33867	5069
19,34933	5084
19,36000	5092
19,37067	5098
19,38133	5093
19,39200	5097
19,40267	5108
19,41333	5105
19,42400	5112
19,43467	5114
19,44533	5114
19,45600	5120
19,46667	5126
19,47733	5127
19,48800	5131
19,49867	5138
19,50933	5139
19,52000	5137
19,53067	5136
19,54133	5146
19,55200	5166
19,56267	5167
19,57333	5167
19,58400	5173
19,59467	5180
19,60533	5181
19,61600	5190
19,62667	5191
19,63733	5197
19,64800	5197
19,65867	5207
19,66933	5210
19,68000	5213
19,69067	5219
19,70133	5223
19,71200	5230
19,72267	5229
19,73333	5235
19,74400	5236
19,75467	5244
19,76533	5248
19,77600	5251
19,78667	5255
19,79733	5255
19,80800	5253
19,81867	5268
19,82933	5268
19,84000	5275
19,85067	5275
19,86133	5287
19,87200	5292
19,88267	5293
19,89333	5300
19,90400	5302
19,91467	5308
19,92533	5310
19,93600	5311
19,94667	5324
19,95733	5337
19,96800	5341
19,97867	5342
19,98933	5348
20,00000	5356
20,01067	5363
20,02133	5360
20,03200	5360
20,04267	5369
20,05333	5375
20,06400	5379
20,07467	5380
20,08533	5390
20,09600	5388
20,10667	5397
20,11733	5401
20,12800	5396
20,13867	5400
20,14933	5403
20,16000	5416
20,17067	5426
20,18133	5428
20,19200	5436
20,20267	5435
20,21333	5435
20,22400	5436
20,23467	5446
20,24533	5455
20,25600	5466
20,26667	5471
20,27733	5470
20,28800	5478
20,29867	5483
20,30933	5477
20,32000	5481
20,33067	5485
20,34133	5492
20,35200	5496
20,36267	5506
20,37333	5511
20,38400	5510
20,39467	5519
20,40533	5520
20,41600	5528
20,42667	5533
20,43733	5536
20,44800	5540
20,45867	5543
20,46933	5550
20,48000	5551
20,49067	5559
20,50133	5564
20,51200	5568
20,52267	5571
20,53333	5573
20,54400	5573
20,55467	5581
20,56533	5592
20,57600	5594
20,58667	5598
20,59733	5610
20,60800	5615
20,61867	5618
20,62933	5621
20,64000	5620
20,65067	5623
20,66133	5629
20,67200	5641
20,68267	5653
20,69333	5643
20,70400	5650
20,71467	5654
20,72533	5664
20,73600	5667
20,74667	5671
20,75733	5682
20,76800	5688
20,77867	5693
20,78933	5697
20,80000	5694
20,81067	5699
20,82133	5703
20,83200	5711
20,84267	5714
20,85333	5722
20,86400	5722
20,87467	5724
20,88533	5731
20,89600	5739
20,90667	5742
20,91733	5759
20,92800	5758
20,93867	5763
20,94933	5770
20,96000	5774
20,97067	5783
20,98133	5787
20,99200	5787
21,00267	5794
21,01333	5801
21,02400	5804
21,03467	5811
21,04533	5809
21,05600	5807
21,06667	5817
21,07733	5831
21,08800	5834
21,09867	5840
21,10933	5838
21,12000	5851
21,13067	5848
21,14133	5851
21,15200	5860
21,16267	5859
21,17333	5868
21,18400	5878
21,19467	5879
21,20533	5880
21,21600	5893
21,22667	5893
21,23733	5903
21,24800	5896
21,25867	5910
21,26933	5907
21,28000	5918
21,29067	5924
21,30133	5922
21,31200	5926
21,32267	5934
21,33333	5945
21,34400	5943
21,35467	5940
21,36533	5950
21,37600	5953
21,38667	5961
21,39733	5963
21,40800	5975
21,41867	5979
21,42933	5978
21,44000	5982
21,45067	5992
21,46133	5990
21,47200	6001
21,48267	6005
21,49333	6006
21,50400	6019
21,51467	6019
21,52533	6024
21,53600	6030
21,54667	6036
21,55733	6039
21,56800	6048
21,57867	6048
21,58933	6060
21,60000	6060
21,61067	6065
21,62133	6066
21,63200	6078
21,64267	6078
21,65333	6086
21,66400	6083
21,67467	6088
21,68533	6094
21,69600	6102
21,70667	6108
21,71733	6115
21,72800	6115
21,73867	6127
21,74933	6124
21,76000	6128
21,77067	6136
21,78133	6142
21,79200	6146
21,80267	6152
21,81333	6149
21,82400	6148
21,83467	6161
21,84533	6172
21,85600	6175
21,86667	6179
21,87733	6197
21,88800	6199
21,89867	6197
21,90933	6206
21,92000	6212
21,93067	6215
21,94133	6224
21,95200	6228
21,96267	6231
21,97333	6233
21,98400	6245
21,99467	6250
22,00533	6253
22,01600	6263
22,02667	6267
22,03733	6271
22,04800	6269
22,05867	6272
22,06933	6285
22,08000	6283
22,09067	6294
22,10133	6303
22,11200	6303
22,12267	6310
22,13333	6321
22,14400	6329
22,15467	6328
22,16533	6333
22,17600	6339
22,18667	6337
22,19733	6347
22,20800	6349
22,21867	6352
22,22933	6357
22,24000	6360
22,25067	6373
22,26133	6385
22,27200	6381
22,28267	6385
22,29333	6392
22,30400	6399
22,31467	6418
22,32533	6423
22,33600	6419
22,34667	6416
22,35733	6423
22,36800	6432
22,37867	6446
22,38933	6445
22,40000	6448
22,41067	6457
22,42133	6463
22,43200	6465
22,44267	6471
22,45333	6472
22,46400	6486
22,47467	6488
22,48533	6502
22,49600	6507
22,50667	6508
22,51733	6513
22,52800	6512
22,53867	6516
22,54933	6514
22,56000	6525
22,57067	6536
22,58133	6532
22,59200	6538
22,60267	6545
22,61333	6553
22,62400	6556
22,63467	6567
22,64533	6563
22,65600	6566
22,66667	6576
22,67733	6581
22,68800	6588
22,69867	6590
22,70933	6600
22,72000	6605
22,73067	6613
22,74133	6623
22,75200	6632
22,76267	6632
22,77333	6633
22,78400	6639
22,79467	6648
22,80533	6656
22,81600	6654
22,82667	6651
22,83733	6660
22,84800	6669
22,85867	6672
22,86933	6685
22,88000	6685
22,89067	6687
22,90133	6693
22,91200	6698
22,92267	6706
22,93333	6699
22,94400	6707
22,95467	6719
22,96533	6729
22,97600	6726
22,98667	6737
22,99733	6734
23,00800	6746
23,01867	6749
23,02933	6751
23,04000	6761
23,05067	6765
23,06133	6773
23,07200	6780
23,08267	6782
23,09333	6786
23,10400	6792
23,11467	6800
23,12533	6799
23,13600	6807
23,14667	6814
23,15733	6816
23,16800	6821
23,17867	6825
23,18933	6834
23,20000	6836
23,21067	6842
23,22133	6852
23,23200	6854
23,24267	6851
23,25333	6853
23,26400	6862
23,27467	6862
23,28533	6879
23,29600	6883
23,30667	6884
23,31733	6890
23,32800	6895
23,33867	6906
23,34933	6915
23,36000	6922
23,37067	6923
23,38133	6935
23,39200	6932
23,40267	6934
23,41333	6934
23,42400	6948
23,43467	6957
23,44533	6969
23,45600	6964
23,46667	6968
23,47733	6974
23,48800	6974
23,49867	6982
23,50933	6990
23,52000	6997
23,53067	7004
23,54133	7006
23,55200	7009
23,56267	7019
23,57333	7024
23,58400	7026
23,59467	7040
23,60533	7046
23,61600	7047
23,62667	7054
23,63733	7048
23,64800	7052
23,65867	7064
23,66933	7068
23,68000	7075
23,69067	7082
23,70133	7085
23,71200	7094
23,72267	7101
23,73333	7103
23,74400	7104
23,75467	7126
23,76533	7130
23,77600	7131
23,78667	7139
23,79733	7142
23,80800	7143
23,81867	7151
23,82933	7160
23,84000	7160
23,85067	7166
23,86133	7171
23,87200	7180
23,88267	7179
23,89333	7187
23,90400	7202
23,91467	7205
23,92533	7210
23,93600	7219
23,94667	7212
23,95733	7215
23,96800	7231
23,97867	7236
23,98933	7243
24,00000	7254
24,01067	7262
24,02133	7263
24,03200	7265
24,04267	7272
24,05333	7278
24,06400	7277
24,07467	7283
24,08533	7292
24,09600	7295
24,10667	7301
24,11733	7305
24,12800	7316
24,13867	7322
24,14933	7328
24,16000	7333
24,17067	7343
24,18133	7353
24,19200	7359
24,20267	7364
24,21333	7372
24,22400	7373
24,23467	7373
24,24533	7374
24,25600	7382
24,26667	7388
24,27733	7393
24,28800	7399
24,29867	7407
24,30933	7406
24,32000	7407
24,33067	7423
24,34133	7432
24,35200	7436
24,36267	7441
24,37333	7451
24,38400	7458
24,39467	7467
24,40533	7470
24,41600	7477
24,42667	7477
24,43733	7482
24,44800	7488
24,45867	7499
24,46933	7502
24,48000	7510
24,49067	7513
24,50133	7520
24,51200	7522
24,52267	7523
24,53333	7536
24,54400	7546
24,55467	7545
24,56533	7550
24,57600	7559
24,58667	7561
24,59733	7573
24,60800	7583
24,61867	7588
24,62933	7591
24,64000	7604
24,65067	7599
24,66133	7601
24,67200	7607
24,68267	7613
24,69333	7626
24,70400	7629
24,71467	7632
24,72533	7632
24,73600	7643
24,74667	7642
24,75733	7655
24,76800	7663
24,77867	7668
24,78933	7674
24,80000	7677
24,81067	7692
24,82133	7695
24,83200	7702
24,84267	7711
24,85333	7709
24,86400	7721
24,87467	7726
24,88533	7741
24,89600	7737
24,90667	7744
24,91733	7753
24,92800	7757
24,93867	7766
24,94933	7766
24,96000	7772
24,97067	7775
24,98133	7783
24,99200	7801
25,00267	7804
25,01333	7801
25,02400	7799
25,03467	7817
25,04533	7828
25,05600	7827
25,06667	7835
25,07733	7850
25,08800	7859
25,09867	7863
25,10933	7870
25,12000	7868
25,13067	7877
25,14133	7882
25,15200	7895
25,16267	7900
25,17333	7911
25,18400	7910
25,19467	7927
25,20533	7929
25,21600	7928
25,22667	7946
25,23733	7944
25,24800	7948
25,25867	7958
25,26933	7971
25,28000	7983
25,29067	7989
25,30133	7992
25,31200	8006
25,32267	8018
25,33333	8018
25,34400	8036
25,35467	8047
25,36533	8052
25,37600	8057
25,38667	8059
25,39733	8077
25,40800	8084
25,41867	8096
25,42933	8100
25,44000	8106
25,45067	8119
25,46133	8133
25,47200	8134
25,48267	8142
25,49333	8158
25,50400	8167
25,51467	8171
25,52533	8179
25,53600	8190
25,54667	8206
25,55733	8210
25,56800	8218
25,57867	8206
25,58933	8225
25,60000	8235
25,61067	8235
25,62133	8246
25,63200	8258
25,64267	8261
25,65333	8277
25,66400	8285
25,67467	8293
25,68533	8292
25,69600	8302
25,70667	8309
25,71733	8318
25,72800	8335
25,73867	8343
25,74933	8353
25,76000	8361
25,77067	8369
25,78133	8373
25,79200	8388
25,80267	8390
25,81333	8400
25,82400	8402
25,83467	8408
25,84533	8424
25,85600	8428
25,86667	8427
25,87733	8435
25,88800	8443
25,89867	8449
25,90933	8460
25,92000	8468
25,93067	8471
25,94133	8470
25,95200	8488
25,96267	8494
25,97333	8505
25,98400	8513
25,99467	8524
26,00533	8521
26,01600	8530
26,02667	8536
26,03733	8548
26,04800	8553
26,05867	8566
26,06933	8573
26,08000	8581
26,09067	8580
26,10133	8591
26,11200	8602
26,12267	8604
26,13333	8612
26,14400	8627
26,15467	8628
26,16533	8632
26,17600	8638
26,18667	8649
26,19733	8653
26,20800	8658
26,21867	8672
26,22933	8683
26,24000	8700
26,25067	8699
26,26133	8701
26,27200	8710
26,28267	8714
26,29333	8724
26,30400	8738
26,31467	8742
26,32533	8750
26,33600	8761
26,34667	8769
26,35733	8770
26,36800	8783
26,37867	8782
26,38933	8790
26,40000	8808
26,41067	8816
26,42133	8817
26,43200	8819
26,44267	8828
26,45333	8836
26,46400	8849
26,47467	8856
26,48533	8856
26,49600	8867
26,50667	8874
26,51733	8876
26,52800	8884
26,53867	8898
26,54933	8912
26,56000	8918
26,57067	8919
26,58133	8923
26,59200	8938
26,60267	8948
26,61333	8960
26,62400	8963
26,63467	8969
26,64533	8981
26,65600	8989
26,66667	8999
26,67733	9011
26,68800	9017
26,69867	9027
26,70933	9029
26,72000	9040
26,73067	9047
26,74133	9057
26,75200	9069
26,76267	9079
26,77333	9068
26,78400	9078
26,79467	9091
26,80533	9092
26,81600	9101
26,82667	9113
26,83733	9122
26,84800	9131
26,85867	9136
26,86933	9146
26,88000	9154
26,89067	9161
26,90133	9170
26,91200	9186
26,92267	9196
26,93333	9205
26,94400	9211
26,95467	9214
26,96533	9231
26,97600	9227
26,98667	9237
26,99733	9248
27,00800	9250
27,01867	9255
27,02933	9255
27,04000	9262
27,05067	9260
27,06133	9267
27,07200	9263
27,08267	9271
27,09333	9276
27,10400	9278
27,11467	9281
27,12533	9287
27,13600	9295
27,14667	9305
27,15733	9301
27,16800	9307
27,17867	9314
27,18933	9325
27,20000	9326
27,21067	9319
27,22133	9332
27,23200	9345
27,24267	9351
27,25333	9349
27,26400	9359
27,27467	9366
27,28533	9373
27,29600	9375
27,30667	9375
27,31733	9389
27,32800	9396
27,33867	9405
27,34933	9409
27,36000	9416
27,37067	9417
27,38133	9426
27,39200	9425
27,40267	9439
27,41333	9436
27,42400	9444
27,43467	9455
27,44533	9461
27,45600	9472
27,46667	9470
27,47733	9477
27,48800	9478
27,49867	9489
27,50933	9504
27,52000	9503
27,53067	9504
27,54133	9513
27,55200	9518
27,56267	9527
27,57333	9529
27,58400	9537
27,59467	9551
27,60533	9553
27,61600	9552
27,62667	9564
27,63733	9565
27,64800	9577
27,65867	9579
27,66933	9587
27,68000	9600
27,69067	9614
27,70133	9611
27,71200	9615
27,72267	9621
27,73333	9634
27,74400	9638
27,75467	9646
27,76533	9656
27,77600	9655
27,78667	9658
27,79733	9668
27,80800	9682
27,81867	9688
27,82933	9699
27,84000	9711
27,85067	9708
27,86133	9715
27,87200	9733
27,88267	9737
27,89333	9744
27,90400	9754
27,91467	9762
27,92533	9760
27,93600	9771
27,94667	9786
27,95733	9785
27,96800	9799
27,97867	9804
27,98933	9814
28,00000	9819
28,01067	9835
28,02133	9841
28,03200	9847
28,04267	9857
28,05333	9866
28,06400	9870
28,07467	9874
28,08533	9885
28,09600	9907
28,10667	9921
28,11733	9934
28,12800	9951
28,13867	9964
28,14933	9973
28,16000	9991
28,17067	9997
28,18133	10006
28,19200	10022
28,20267	10039
28,21333	10043
28,22400	10050
28,23467	10060
28,24533	10067
28,25600	10068
28,26667	10078
28,27733	10084
28,28800	10099
28,29867	10098
28,30933	10107
28,32000	10122
28,33067	10125
28,34133	10132
28,35200	10146
28,36267	10154
28,37333	10160
28,38400	10181
28,39467	10189
28,40533	10202
28,41600	10217
28,42667	10230
28,43733	10236
28,44800	10246
28,45867	10256
28,46933	10260
28,48000	10275
28,49067	10274
28,50133	10290
28,51200	10299
28,52267	10307
28,53333	10316
28,54400	10321
28,55467	10327
28,56533	10336
28,57600	10346
28,58667	10345
28,59733	10351
28,60800	10355
28,61867	10362
28,62933	10377
28,64000	10381
28,65067	10383
28,66133	10393
28,67200	10396
28,68267	10394
28,69333	10396
28,70400	10405
28,71467	10408
28,72533	10416
28,73600	10417
28,74667	10422
28,75733	10429
28,76800	10429
28,77867	10431
28,78933	10432
28,80000	10439
28,81067	10445
28,82133	10457
28,83200	10461
28,84267	10456
28,85333	10460
28,86400	10466
28,87467	10476
28,88533	10473
28,89600	10479
28,90667	10493
28,91733	10503
28,92800	10509
28,93867	10505
28,94933	10517
28,96000	10520
28,97067	10525
28,98133	10529
28,99200	10529
29,00267	10544
29,01333	10547
29,02400	10554
29,03467	10564
29,04533	10569
29,05600	10570
29,06667	10577
29,07733	10576
29,08800	10588
29,09867	10593
29,10933	10600
29,12000	10600
29,13067	10607
29,14133	10610
29,15200	10621
29,16267	10628
29,17333	10637
29,18400	10657
29,19467	10664
29,20533	10673
29,21600	10681
29,22667	10694
29,23733	10698
29,24800	10714
29,25867	10731
29,26933	10732
29,28000	10742
29,29067	10754
29,30133	10759
29,31200	10772
29,32267	10780
29,33333	10793
29,34400	10804
29,35467	10808
29,36533	10813
29,37600	10827
29,38667	10833
29,39733	10843
29,40800	10857
29,41867	10862
29,42933	10876
29,44000	10882
29,45067	10883
29,46133	10899
29,47200	10908
29,48267	10915
29,49333	10914
29,50400	10914
29,51467	10924
29,52533	10948
29,53600	10954
29,54667	10956
29,55733	10968
29,56800	10979
29,57867	10991
29,58933	10998
29,60000	11013
29,61067	11027
29,62133	11036
29,63200	11051
29,64267	11066
29,65333	11074
29,66400	11088
29,67467	11090
29,68533	11095
29,69600	11105
29,70667	11100
29,71733	11095
29,72800	11102
29,73867	11090
29,74933	11093
29,76000	11105
29,77067	11111
29,78133	11118
29,79200	11113
29,80267	11110
29,81333	11111
29,82400	11118
29,83467	11129
29,84533	11130
29,85600	11135
29,86667	11145
29,87733	11153
29,88800	11156
29,89867	11165
29,90933	11166
29,92000	11179
29,93067	11192
29,94133	11202
29,95200	11199
29,96267	11205
29,97333	11215
29,98400	11222
29,99467	11230
30,00533	11245
30,01600	11249
30,02667	11267
30,03733	11277
30,04800	11285
30,05867	11295
30,06933	11308
30,08000	11316
30,09067	11323
30,10133	11330
30,11200	11346
30,12267	11360
30,13333	11368
30,14400	11381
30,15467	11388
30,16533	11404
30,17600	11412
30,18667	11414
30,19733	11419
30,20800	11431
30,21867	11437
30,22933	11443
30,24000	11443
30,25067	11450
30,26133	11449
30,27200	11457
30,28267	11464
30,29333	11464
30,30400	11468
30,31467	11472
30,32533	11477
30,33600	11482
30,34667	11497
30,35733	11495
30,36800	11510
30,37867	11515
30,38933	11531
30,40000	11539
30,41067	11534
30,42133	11550
30,43200	11557
30,44267	11563
30,45333	11576
30,46400	11586
30,47467	11596
30,48533	11597
30,49600	11615
30,50667	11632
30,51733	11643
30,52800	11658
30,53867	11666
30,54933	11668
30,56000	11679
30,57067	11690
30,58133	11710
30,59200	11722
30,60267	11735
30,61333	11750
30,62400	11754
30,63467	11766
30,64533	11782
30,65600	11795
30,66667	11799
30,67733	11804
30,68800	11808
30,69867	11832
30,70933	11841
30,72000	11854
30,73067	11855
30,74133	11865
30,75200	11869
30,76267	11882
30,77333	11891
30,78400	11905
30,79467	11906
30,80533	11916
30,81600	11928
30,82667	11941
30,83733	11952
30,84800	11956
30,85867	11965
30,86933	11974
30,88000	11981
30,89067	11988
30,90133	11995
30,91200	12005
30,92267	12014
30,93333	12021
30,94400	12029
30,95467	12045
30,96533	12057
30,97600	12065
30,98667	12078
30,99733	12074
31,00800	12086
31,01867	12104
31,02933	12100
31,04000	12104
31,05067	12112
31,06133	12129
31,07200	12130
31,08267	12143
31,09333	12150
31,10400	12153
31,11467	12156
31,12533	12171
31,13600	12172
31,14667	12179
31,15733	12187
31,16800	12197
31,17867	12210
31,18933	12214
31,20000	12219
31,21067	12229
31,22133	12230
31,23200	12244
31,24267	12242
31,25333	12250
31,26400	12255
31,27467	12267
31,28533	12279
31,29600	12281
31,30667	12286
31,31733	12289
31,32800	12297
31,33867	12311
31,34933	12320
31,36000	12320
31,37067	12325
31,38133	12334
31,39200	12349
31,40267	12342
31,41333	12349
31,42400	12357
31,43467	12362
31,44533	12370
31,45600	12379
31,46667	12389
31,47733	12403
31,48800	12415
31,49867	12419
31,50933	12421
31,52000	12432
31,53067	12448
31,54133	12452
31,55200	12461
31,56267	12467
31,57333	12484
31,58400	12496
31,59467	12497
31,60533	12510
31,61600	12516
31,62667	12519
31,63733	12528
31,64800	12539
31,65867	12542
31,66933	12551
31,68000	12559
31,69067	12569
31,70133	12577
31,71200	12580
31,72267	12576
31,73333	12592
31,74400	12599
31,75467	12604
31,76533	12606
31,77600	12614
31,78667	12625
31,79733	12637
31,80800	12638
31,81867	12645
31,82933	12650
31,84000	12655
31,85067	12662
31,86133	12669
31,87200	12675
31,88267	12674
31,89333	12685
31,90400	12692
31,91467	12696
31,92533	12694
31,93600	12709
31,94667	12712
31,95733	12724
31,96800	12741
31,97867	12734
31,98933	12738
32,00000	12742
32,01067	12750
32,02133	12760
32,03200	12763
32,04267	12773
32,05333	12782
32,06400	12786
32,07467	12800
32,08533	12800
32,09600	12810
32,10667	12812
32,11733	12815
32,12800	12824
32,13867	12834
32,14933	12838
32,16000	12844
32,17067	12844
32,18133	12855
32,19200	12867
32,20267	12876
32,21333	12880
32,22400	12884
32,23467	12891
32,24533	12905
32,25600	12903
32,26667	12919
32,27733	12927
32,28800	12940
32,29867	12953
32,30933	12960
32,32000	12969
32,33067	12973
32,34133	12983
32,35200	12995
32,36267	13011
32,37333	13023
32,38400	13042
32,39467	13060
32,40533	13077
32,41600	13078
32,42667	13085
32,43733	13108
32,44800	13116
32,45867	13141
32,46933	13150
32,48000	13172
32,49067	13190
32,50133	13220
32,51200	13235
32,52267	13249
32,53333	13268
32,54400	13295
32,55467	13325
32,56533	13350
32,57600	13378
32,58667	13400
32,59733	13434
32,60800	13457
32,61867	13489
32,62933	13528
32,64000	13556
32,65067	13591
32,66133	13627
32,67200	13662
32,68267	13700
32,69333	13742
32,70400	13776
32,71467	13821
32,72533	13860
32,73600	13908
32,74667	13951
32,75733	13997
32,76800	14058
32,77867	14103
32,78933	14147
32,80000	14198
32,81067	14255
32,82133	14310
32,83200	14373
32,84267	14438
32,85333	14488
32,86400	14549
32,87467	14623
32,88533	14702
32,89600	14787
32,90667	14872
32,91733	14963
32,92800	15056
32,93867	15146
32,94933	15251
32,96000	15353
32,97067	15461
32,98133	15580
32,99200	15694
33,00267	15793
33,01333	15907
33,02400	16012
33,03467	16101
33,04533	16197
33,05600	16292
33,06667	16388
33,07733	16477
33,08800	16573
33,09867	16654
33,10933	16751
33,12000	16842
33,13067	16930
33,14133	17024
33,15200	17118
33,16267	17214
33,17333	17316
33,18400	17408
33,19467	17507
33,20533	17607
33,21600	17706
33,22667	17810
33,23733	17908
33,24800	17998
33,25867	18099
33,26933	18200
33,28000	18305
33,29067	18403
33,30133	18499
33,31200	18595
33,32267	18696
33,33333	18786
33,34400	18876
33,35467	18959
33,36533	19039
33,37600	19117
33,38667	19206
33,39733	19293
33,40800	19376
33,41867	19465
33,42933	19566
33,44000	19657
33,45067	19756
33,46133	19850
33,47200	19944
33,48267	20045
33,49333	20139
33,50400	20230
33,51467	20330
33,52533	20431
33,53600	20527
33,54667	20624
33,55733	20718
33,56800	20824
33,57867	20930
33,58933	21032
33,60000	21140
33,61067	21245
33,62133	21364
33,63200	21465
33,64267	21584
33,65333	21706
33,66400	21818
33,67467	21935
33,68533	22055
33,69600	22170
33,70667	22284
33,71733	22383
33,72800	22491
33,73867	22610
33,74933	22713
33,76000	22823
33,77067	22928
33,78133	23043
33,79200	23150
33,80267	23258
33,81333	23355
33,82400	23457
33,83467	23563
33,84533	23673
33,85600	23783
33,86667	23907
33,87733	24035
33,88800	24158
33,89867	24273
33,90933	24391
33,92000	24517
33,93067	24629
33,94133	24739
33,95200	24841
33,96267	24948
33,97333	25054
33,98400	25162
33,99467	25269
34,00533	25392
34,01600	25517
34,02667	25642
34,03733	25791
34,04800	25952
34,05867	26150
34,06933	26357
34,08000	26558
34,09067	26730
34,10133	26862
34,11200	26962
34,12267	27020
34,13333	27075
34,14400	27145
34,15467	27231
34,16533	27321
34,17600	27438
34,18667	27556
34,19733	27706
34,20800	27888
34,21867	28078
34,22933	28294
34,24000	28538
34,25067	28788
34,26133	29039
34,27200	29280
34,28267	29498
34,29333	29689
34,30400	29833
34,31467	29936
34,32533	30006
34,33600	30075
34,34667	30149
34,35733	30228
34,36800	30324
34,37867	30443
34,38933	30585
34,40000	30754
34,41067	30961
34,42133	31220
34,43200	31530
34,44267	31831
34,45333	32104
34,46400	32332
34,47467	32514
34,48533	32615
34,49600	32683
34,50667	32699
34,51733	32716
34,52800	32725
34,53867	32745
34,54933	32767
34,56000	32794
34,57067	32827
34,58133	32872
34,59200	32915
34,60267	32971
34,61333	33047
34,62400	33139
34,63467	33232
34,64533	33304
34,65600	33378
34,66667	33448
34,67733	33512
34,68800	33573
34,69867	33650
34,70933	33727
34,72000	33807
34,73067	33894
34,74133	33982
34,75200	34091
34,76267	34217
34,77333	34352
34,78400	34498
34,79467	34653
34,80533	34812
34,81600	34961
34,82667	35103
34,83733	35262
34,84800	35433
34,85867	35602
34,86933	35742
34,88000	35847
34,89067	35928
34,90133	35999
34,91200	36073
34,92267	36159
34,93333	36273
34,94400	36396
34,95467	36562
34,96533	36795
34,97600	37290
34,98667	38562
34,99733	41613
35,00800	47960
35,01867	58939
35,02933	75282
35,04000	96092
35,05067	118401
35,06133	136386
35,07200	144070
35,08267	139633
35,09333	126666
35,10400	110752
35,11467	95972
35,12533	84023
35,13600	75065
35,14667	68601
35,15733	64096
35,16800	61048
35,17867	58961
35,18933	57358
35,20000	55934
35,21067	54586
35,22133	53359
35,23200	52307
35,24267	51432
35,25333	50708
35,26400	50100
35,27467	49584
35,28533	49142
35,29600	48757
35,30667	48416
35,31733	48113
35,32800	47840
35,33867	47625
35,34933	47477
35,36000	47338
35,37067	47099
35,38133	46692
35,39200	46185
35,40267	45754
35,41333	45524
35,42400	45668
35,43467	46397
35,44533	47976
35,45600	50238
35,46667	52540
35,47733	54054
35,48800	54464
35,49867	54007
35,50933	53076
35,52000	51930
35,53067	50669
35,54133	49472
35,55200	48631
35,56267	48397
35,57333	48783
35,58400	49397
35,59467	49730
35,60533	49498
35,61600	48796
35,62667	47948
35,63733	47153
35,64800	46513
35,65867	45987
35,66933	45573
35,68000	45259
35,69067	45033
35,70133	44874
35,71200	44779
35,72267	44723
35,73333	44696
35,74400	44701
35,75467	44727
35,76533	44782
35,77600	44890
35,78667	45079
35,79733	45393
35,80800	45849
35,81867	46407
35,82933	46946
35,84000	47327
35,85067	47476
35,86133	47442
35,87200	47317
35,88267	47151
35,89333	46934
35,90400	46634
35,91467	46290
35,92533	45952
35,93600	45652
35,94667	45412
35,95733	45237
35,96800	45123
35,97867	45076
35,98933	45098
36,00000	45175
36,01067	45274
36,02133	45370
36,03200	45414
36,04267	45397
36,05333	45329
36,06400	45247
36,07467	45178
36,08533	45133
36,09600	45131
36,10667	45166
36,11733	45241
36,12800	45351
36,13867	45491
36,14933	45656
36,16000	45831
36,17067	46011
36,18133	46157
36,19200	46269
36,20267	46365
36,21333	46465
36,22400	46566
36,23467	46675
36,24533	46750
36,25600	46774
36,26667	46758
36,27733	46728
36,28800	46782
36,29867	46976
36,30933	47307
36,32000	47679
36,33067	47914
36,34133	47939
36,35200	47767
36,36267	47482
36,37333	47192
36,38400	46952
36,39467	46770
36,40533	46629
36,41600	46502
36,42667	46398
36,43733	46331
36,44800	46287
36,45867	46272
36,46933	46272
36,48000	46295
36,49067	46336
36,50133	46371
36,51200	46423
36,52267	46463
36,53333	46506
36,54400	46548
36,55467	46588
36,56533	46613
36,57600	46664
36,58667	46709
36,59733	46748
36,60800	46781
36,61867	46834
36,62933	46888
36,64000	46948
36,65067	47026
36,66133	47107
36,67200	47192
36,68267	47289
36,69333	47371
36,70400	47424
36,71467	47472
36,72533	47523
36,73600	47579
36,74667	47668
36,75733	47783
36,76800	47921
36,77867	48030
36,78933	48102
36,80000	48131
36,81067	48108
36,82133	48069
36,83200	48035
36,84267	48026
36,85333	48040
36,86400	48076
36,87467	48120
36,88533	48173
36,89600	48226
36,90667	48299
36,91733	48368
36,92800	48442
36,93867	48523
36,94933	48629
36,96000	48782
36,97067	48972
36,98133	49239
36,99200	49549
37,00267	49889
37,01333	50198
37,02400	50403
37,03467	50507
37,04533	50488
37,05600	50395
37,06667	50274
37,07733	50145
37,08800	50048
37,09867	50001
37,10933	49981
37,12000	50004
37,13067	50055
37,14133	50129
37,15200	50228
37,16267	50354
37,17333	50501
37,18400	50679
37,19467	50877
37,20533	51057
37,21600	51214
37,22667	51328
37,23733	51384
37,24800	51406
37,25867	51412
37,26933	51418
37,28000	51450
37,29067	51484
37,30133	51523
37,31200	51583
37,32267	51645
37,33333	51722
37,34400	51795
37,35467	51859
37,36533	51937
37,37600	52003
37,38667	52079
37,39733	52142
37,40800	52209
37,41867	52273
37,42933	52330
37,44000	52393
37,45067	52447
37,46133	52494
37,47200	52531
37,48267	52575
37,49333	52622
37,50400	52653
37,51467	52677
37,52533	52705
37,53600	52711
37,54667	52716
37,55733	52699
37,56800	52687
37,57867	52668
37,58933	52648
37,60000	52623
37,61067	52589
37,62133	52555
37,63200	52520
37,64267	52463
37,65333	52416
37,66400	52362
37,67467	52299
37,68533	52236
37,69600	52166
37,70667	52098
37,71733	52026
37,72800	51960
37,73867	51890
37,74933	51812
37,76000	51738
37,77067	51657
37,78133	51574
37,79200	51475
37,80267	51363
37,81333	51232
37,82400	51098
37,83467	50958
37,84533	50815
37,85600	50665
37,86667	50540
37,87733	50398
37,88800	50257
37,89867	50132
37,90933	50008
37,92000	49884
37,93067	49761
37,94133	49643
37,95200	49531
37,96267	49411
37,97333	49304
37,98400	49197
37,99467	49087
38,00533	48981
38,01600	48876
38,02667	48779
38,03733	48681
38,04800	48588
38,05867	48502
38,06933	48425
38,08000	48340
38,09067	48260
38,10133	48189
38,11200	48115
38,12267	48055
38,13333	47991
38,14400	47928
38,15467	47869
38,16533	47829
38,17600	47783
38,18667	47748
38,19733	47714
38,20800	47692
38,21867	47664
38,22933	47641
38,24000	47628
38,25067	47609
38,26133	47593
38,27200	47580
38,28267	47559
38,29333	47536
38,30400	47527
38,31467	47500
38,32533	47491
38,33600	47472
38,34667	47452
38,35733	47446
38,36800	47447
38,37867	47444
38,38933	47438
38,40000	47453
38,41067	47446
38,42133	47445
38,43200	47453
38,44267	47464
38,45333	47474
38,46400	47479
38,47467	47491
38,48533	47505
38,49600	47520
38,50667	47522
38,51733	47530
38,52800	47548
38,53867	47555
38,54933	47567
38,56000	47583
38,57067	47594
38,58133	47607
38,59200	47626
38,60267	47643
38,61333	47660
38,62400	47681
38,63467	47715
38,64533	47736
38,65600	47754
38,66667	47780
38,67733	47810
38,68800	47844
38,69867	47882
38,70933	47913
38,72000	47953
38,73067	48019
38,74133	48126
38,75200	48293
38,76267	48544
38,77333	48956
38,78400	49589
38,79467	50541
38,80533	51920
38,81600	53833
38,82667	56360
38,83733	59508
38,84800	63164
38,85867	67100
38,86933	70963
38,88000	74301
38,89067	76670
38,90133	77738
38,91200	77350
38,92267	75592
38,93333	72738
38,94400	69205
38,95467	65447
38,96533	61850
38,97600	58685
38,98667	56094
38,99733	54072
39,00800	52616
39,01867	51581
39,02933	50868
39,04000	50385
39,05067	50057
39,06133	49818
39,07200	49642
39,08267	49505
39,09333	49394
39,10400	49286
39,11467	49181
39,12533	49086
39,13600	48990
39,14667	48879
39,15733	48770
39,16800	48649
39,17867	48529
39,18933	48395
39,20000	48251
39,21067	48097
39,22133	47920
39,23200	47746
39,24267	47548
39,25333	47347
39,26400	47123
39,27467	46901
39,28533	46659
39,29600	46399
39,30667	46134
39,31733	45854
39,32800	45572
39,33867	45266
39,34933	44958
39,36000	44649
39,37067	44332
39,38133	43995
39,39200	43664
39,40267	43344
39,41333	43020
39,42400	42699
39,43467	42365
39,44533	42049
39,45600	41728
39,46667	41416
39,47733	41086
39,48800	40751
39,49867	40418
39,50933	40052
39,52000	39656
39,53067	39245
39,54133	38815
39,55200	38351
39,56267	37877
39,57333	37421
39,58400	36992
39,59467	36556
39,60533	36095
39,61600	35556
39,62667	34928
39,63733	34195
39,64800	33335
39,65867	32384
39,66933	31322
39,68000	30171
39,69067	28964
39,70133	27719
39,71200	26465
39,72267	25200
39,73333	23894
39,74400	22579
39,75467	21312
39,76533	20070
39,77600	18856
39,78667	17698
39,79733	16603
39,80800	15573
39,81867	14597
39,82933	13689
39,84000	12824
39,85067	12022
39,86133	11278
39,87200	10607
39,88267	9988
39,89333	9421
39,90400	8895
39,91467	8411
39,92533	7969
39,93600	7561
39,94667	7183
39,95733	6839
39,96800	6525
39,97867	6225
39,98933	5949
40,00000	5687
40,01067	5443
40,02133	5222
40,03200	5018
40,04267	4813
40,05333	4628
40,06400	4448
40,07467	4284
40,08533	4122
40,09600	3974
40,10667	3831
40,11733	3698
40,12800	3566
40,13867	3448
40,14933	3331
40,16000	3222
40,17067	3116
40,18133	3020
40,19200	2922
40,20267	2828
40,21333	2739
40,22400	2658
40,23467	2579
40,24533	2507
40,25600	2427
40,26667	2349
40,27733	2283
40,28800	2222
40,29867	2163
40,30933	2102
40,32000	2045
40,33067	1993
40,34133	1935
40,35200	1878
40,36267	1834
40,37333	1780
40,38400	1729
40,39467	1690
40,40533	1648
40,41600	1600
40,42667	1565
40,43733	1533
40,44800	1482
40,45867	1447
40,46933	1415
40,48000	1384
40,49067	1346
40,50133	1315
40,51200	1283
40,52267	1255
40,53333	1220
40,54400	1196
40,55467	1155
40,56533	1136
40,57600	1109
40,58667	1071
40,59733	1044
40,60800	1011
40,61867	992
40,62933	977
40,64000	935
40,65067	917
40,66133	890
40,67200	866
40,68267	829
40,69333	800
40,70400	783
40,71467	752
40,72533	729
40,73600	697
40,74667	681
40,75733	650
40,76800	613
40,77867	585
40,78933	571
40,80000	544
40,81067	516
40,82133	491
40,83200	465
40,84267	448
40,85333	429
40,86400	403
40,87467	383
40,88533	359
40,89600	342
40,90667	322
40,91733	297
40,92800	278
40,93867	260
40,94933	238
40,96000	222
40,97067	205
40,98133	187
40,99200	173
41,00267	155
41,01333	143
41,02400	129
41,03467	113
41,04533	103
41,05600	90
41,06667	67
41,07733	61
41,08800	47
41,09867	26
41,10933	17
41,12000	10
41,13067	-2
41,14133	-12
41,15200	-21
41,16267	-33
41,17333	-43
41,18400	-56
41,19467	-65
41,20533	-78
41,21600	-94
41,22667	-102
41,23733	-110
41,24800	-128
41,25867	-133
41,26933	-143
41,28000	-156
41,29067	-159
41,30133	-165
41,31200	-164
41,32267	-185
41,33333	-190
41,34400	-201
41,35467	-200
41,36533	-206
41,37600	-211
41,38667	-213
41,39733	-224
41,40800	-230
41,41867	-226
41,42933	-227
41,44000	-237
41,45067	-236
41,46133	-233
41,47200	-240
41,48267	-245
41,49333	-242
41,50400	-234
41,51467	-229
41,52533	-235
41,53600	-230
41,54667	-224
41,55733	-222
41,56800	-229
41,57867	-222
41,58933	-218
41,60000	-218
41,61067	-212
41,62133	-202
41,63200	-199
41,64267	-198
41,65333	-187
41,66400	-186
41,67467	-181
41,68533	-176
41,69600	-174
41,70667	-168
41,71733	-160
41,72800	-155
41,73867	-150
41,74933	-146
41,76000	-147
41,77067	-141
41,78133	-132
41,79200	-126
41,80267	-117
41,81333	-112
41,82400	-109
41,83467	-107
41,84533	-98
41,85600	-101
41,86667	-91
41,87733	-86
41,88800	-76
41,89867	-68
41,90933	-68
41,92000	-69
41,93067	-64
41,94133	-52
41,95200	-51
41,96267	-50
41,97333	-48
41,98400	-41
41,99467	-38
42,00533	-29
42,01600	-28
42,02667	-24
42,03733	-27
42,04800	-11
42,05867	-15
42,06933	-8
42,08000	-8
42,09067	-12
42,10133	-9
42,11200	-3
42,12267	-2
42,13333	-2
42,14400	-1
42,15467	6
42,16533	3
42,17600	6
42,18667	8
42,19733	10
42,20800	14
42,21867	14
42,22933	16
42,24000	15
42,25067	19
42,26133	20
42,27200	19
42,28267	30
42,29333	29
42,30400	24
42,31467	26
42,32533	24
42,33600	26
42,34667	23
42,35733	27
42,36800	24
42,37867	25
42,38933	28
42,40000	22
42,41067	24
42,42133	22
42,43200	26
42,44267	22
42,45333	22
42,46400	28
42,47467	24
42,48533	18
42,49600	26
42,50667	22
42,51733	24
42,52800	17
42,53867	21
42,54933	25
42,56000	17
42,57067	19
42,58133	17
42,59200	19
42,60267	10
42,61333	14
42,62400	21
42,63467	17
42,64533	16
42,65600	21
42,66667	19
42,67733	18
42,68800	15
42,69867	16
42,70933	12
42,72000	12
42,73067	10
42,74133	5
42,75200	8
42,76267	10
42,77333	8
42,78400	13
42,79467	14
42,80533	13
42,81600	5
42,82667	13
42,83733	11
42,84800	-1
42,85867	6
42,86933	2
42,88000	-2
42,89067	-1
42,90133	-6
42,91200	-7
42,92267	-6
42,93333	-9
42,94400	-2
42,95467	-12
42,96533	-7
42,97600	-7
42,98667	-9
42,99733	-3
43,00800	-2
43,01867	0
43,02933	-8
43,04000	-13
43,05067	-10
43,06133	-3
43,07200	-9
43,08267	-8
43,09333	-1
43,10400	-5
43,11467	-11
43,12533	-10
43,13600	-15
43,14667	-16
43,15733	-18
43,16800	-13
43,17867	-17
43,18933	-19
43,20000	-19
43,21067	-13
43,22133	-12
43,23200	-16
43,24267	-22
43,25333	-17
43,26400	-25
43,27467	-15
43,28533	-19
43,29600	-21
43,30667	-15
43,31733	-15
43,32800	-17
43,33867	-20
43,34933	-27
43,36000	-26
43,37067	-22
43,38133	-26
43,39200	-23
43,40267	-28
43,41333	-30
43,42400	-27
43,43467	-28
43,44533	-25
43,45600	-27
43,46667	-25
43,47733	-27
43,48800	-27
43,49867	-32
43,50933	-34
43,52000	-33
43,53067	-31
43,54133	-40
43,55200	-41
43,56267	-31
43,57333	-32
43,58400	-33
43,59467	-25
43,60533	-27
43,61600	-27
43,62667	-26
43,63733	-31
43,64800	-36
43,65867	-36
43,66933	-35
43,68000	-29
43,69067	-28
43,70133	-41
43,71200	-45
43,72267	-37
43,73333	-34
43,74400	-24
43,75467	-30
43,76533	-32
43,77600	-32
43,78667	-32
43,79733	-30
43,80800	-24
43,81867	-27
43,82933	-28
43,84000	-27
43,85067	-38
43,86133	-43
43,87200	-34
43,88267	-39
43,89333	-38
43,90400	-45
43,91467	-36
43,92533	-38
43,93600	-38
43,94667	-44
43,95733	-44
43,96800	-47
43,97867	-40
43,98933	-37
44,00000	-42
44,01067	-54
44,02133	-45
44,03200	-45
44,04267	-42
44,05333	-43
44,06400	-35
44,07467	-45
44,08533	-51
44,09600	-50
44,10667	-50
44,11733	-45
44,12800	-50
44,13867	-47
44,14933	-47
44,16000	-42
44,17067	-46
44,18133	-48
44,19200	-41
44,20267	-48
44,21333	-44
44,22400	-43
44,23467	-50
44,24533	-58
44,25600	-62
44,26667	-67
44,27733	-54
44,28800	-54
44,29867	-50
44,30933	-61
44,32000	-56
44,33067	-59
44,34133	-62
44,35200	-56
44,36267	-60
44,37333	-63
44,38400	-66
44,39467	-70
44,40533	-66
44,41600	-64
44,42667	-63
44,43733	-63
44,44800	-58
44,45867	-61
44,46933	-67
44,48000	-62
44,49067	-60
44,50133	-65
44,51200	-66
44,52267	-72
44,53333	-66
44,54400	-69
44,55467	-68
44,56533	-63
44,57600	-63
44,58667	-55
44,59733	-61
44,60800	-63
44,61867	-63
44,62933	-68
44,64000	-68
44,65067	-68
44,66133	-71
44,67200	-70
44,68267	-65
44,69333	-66
44,70400	-67
44,71467	-76
44,72533	-77
44,73600	-82
44,74667	-72
44,75733	-75
44,76800	-79
44,77867	-74
44,78933	-74
44,80000	-69
44,81067	-63
44,82133	-64
44,83200	-65
44,84267	-66
44,85333	-81
44,86400	-76
44,87467	-75
44,88533	-71
44,89600	-69
44,90667	-72
44,91733	-68
44,92800	-67
44,93867	-69
44,94933	-75
44,96000	-82
44,97067	-81
44,98133	-82
44,99200	-84
45,00267	-80
45,01333	-81
45,02400	-81
45,03467	-90
45,04533	-91
45,05600	-87
45,06667	-85
45,07733	-74
45,08800	-78
45,09867	-78
45,10933	-86
45,12000	-82
45,13067	-82
45,14133	-83
45,15200	-86
45,16267	-83
45,17333	-78
45,18400	-84
45,19467	-84
45,20533	-80
45,21600	-78
45,22667	-75
45,23733	-76
45,24800	-82
45,25867	-82
45,26933	-79
45,28000	-86
45,29067	-87
45,30133	-85
45,31200	-79
45,32267	-85
45,33333	-76
45,34400	-78
45,35467	-87
45,36533	-82
45,37600	-80
45,38667	-79
45,39733	-80
45,40800	-75
45,41867	-79
45,42933	-80
45,44000	-80
45,45067	-81
45,46133	-81
45,47200	-71
45,48267	-77
45,49333	-77
45,50400	-84
45,51467	-84
45,52533	-85
45,53600	-88
45,54667	-85
45,55733	-84
45,56800	-82
45,57867	-87
45,58933	-86
45,60000	-87
45,61067	-80
45,62133	-86
45,63200	-90
45,64267	-97
45,65333	-90
45,66400	-80
45,67467	-87
45,68533	-81
45,69600	-85
45,70667	-83
45,71733	-87
45,72800	-95
45,73867	-84
45,74933	-85
45,76000	-80
45,77067	-79
45,78133	-79
45,79200	-86
45,80267	-90
45,81333	-85
45,82400	-84
45,83467	-82
45,84533	-95
45,85600	-88
45,86667	-87
45,87733	-85
45,88800	-84
45,89867	-92
45,90933	-88
45,92000	-89
45,93067	-88
45,94133	-84
45,95200	-84
45,96267	-91
45,97333	-99
45,98400	-99
45,99467	-96
46,00533	-94
46,01600	-97
46,02667	-87
46,03733	-92
46,04800	-87
46,05867	-86
46,06933	-96
46,08000	-97
46,09067	-97
46,10133	-97
46,11200	-99
46,12267	-100
46,13333	-96
46,14400	-96
46,15467	-98
46,16533	-94
46,17600	-98
46,18667	-101
46,19733	-94
46,20800	-102
46,21867	-104
46,22933	-97
46,24000	-95
46,25067	-99
46,26133	-97
46,27200	-103
46,28267	-96
46,29333	-101
46,30400	-110
46,31467	-98
46,32533	-104
46,33600	-109
46,34667	-99
46,35733	-99
46,36800	-100
46,37867	-97
46,38933	-104
46,40000	-103
46,41067	-105
46,42133	-107
46,43200	-107
46,44267	-112
46,45333	-110
46,46400	-106
46,47467	-111
46,48533	-111
46,49600	-110
46,50667	-108
46,51733	-108
46,52800	-104
46,53867	-113
46,54933	-104
46,56000	-110
46,57067	-115
46,58133	-105
46,59200	-109
46,60267	-110
46,61333	-106
46,62400	-109
46,63467	-108
46,64533	-109
46,65600	-104
46,66667	-103
46,67733	-106
46,68800	-106
46,69867	-107
46,70933	-114
46,72000	-116
46,73067	-102
46,74133	-102
46,75200	-114
46,76267	-109
46,77333	-106
46,78400	-110
46,79467	-107
46,80533	-113
46,81600	-118
46,82667	-114
46,83733	-108
46,84800	-113
46,85867	-114
46,86933	-113
46,88000	-106
46,89067	-106
46,90133	-111
46,91200	-117
46,92267	-117
46,93333	-117
46,94400	-105
46,95467	-115
46,96533	-118
46,97600	-117
46,98667	-113
46,99733	-115
47,00800	-119
47,01867	-121
47,02933	-124
47,04000	-121
47,05067	-122
47,06133	-123
47,07200	-118
47,08267	-120
47,09333	-118
47,10400	-124
47,11467	-124
47,12533	-126
47,13600	-123
47,14667	-120
47,15733	-113
47,16800	-114
47,17867	-113
47,18933	-120
47,20000	-123
47,21067	-119
47,22133	-118
47,23200	-119
47,24267	-122
47,25333	-125
47,26400	-122
47,27467	-118
47,28533	-130
47,29600	-129
47,30667	-123
47,31733	-128
47,32800	-134
47,33867	-121
47,34933	-121
47,36000	-126
47,37067	-124
47,38133	-122
47,39200	-125
47,40267	-127
47,41333	-127
47,42400	-120
47,43467	-127
47,44533	-130
47,45600	-129
47,46667	-128
47,47733	-129
47,48800	-133
47,49867	-131
47,50933	-129
47,52000	-125
47,53067	-122
47,54133	-124
47,55200	-126
47,56267	-130
47,57333	-128
47,58400	-122
47,59467	-117
47,60533	-126
47,61600	-133
47,62667	-126
47,63733	-130
47,64800	-130
47,65867	-128
47,66933	-128
47,68000	-130
47,69067	-128
47,70133	-127
47,71200	-130
47,72267	-125
47,73333	-123
47,74400	-126
47,75467	-130
47,76533	-134
47,77600	-138
47,78667	-131
47,79733	-124
47,80800	-126
47,81867	-122
47,82933	-131
47,84000	-132
47,85067	-128
47,86133	-130
47,87200	-123
47,88267	-124
47,89333	-125
47,90400	-131
47,91467	-126
47,92533	-132
47,93600	-134
47,94667	-132
47,95733	-129
47,96800	-137
47,97867	-133
47,98933	-136
48,00000	-137
48,01067	-137
48,02133	-143
48,03200	-135
48,04267	-144
48,05333	-131
48,06400	-134
48,07467	-137
48,08533	-149
48,09600	-132
48,10667	-134
48,11733	-140
48,12800	-141
48,13867	-144
48,14933	-146
48,16000	-150
48,17067	-147
48,18133	-145
48,19200	-150
48,20267	-152
48,21333	-153
48,22400	-157
48,23467	-157
48,24533	-152
48,25600	-153
48,26667	-154
48,27733	-159
48,28800	-155
48,29867	-160
48,30933	-157
48,32000	-146
48,33067	-153
48,34133	-164
48,35200	-166
48,36267	-160
48,37333	-157
48,38400	-157
48,39467	-157
48,40533	-155
48,41600	-157
48,42667	-158
48,43733	-159
48,44800	-157
48,45867	-157
48,46933	-153
48,48000	-155
48,49067	-161
48,50133	-164
48,51200	-163
48,52267	-151
48,53333	-155
48,54400	-161
48,55467	-158
48,56533	-152
48,57600	-152
48,58667	-158
48,59733	-162
48,60800	-161
48,61867	-157
48,62933	-149
48,64000	-153
48,65067	-156
48,66133	-162
48,67200	-161
48,68267	-162
48,69333	-161
48,70400	-160
48,71467	-166
48,72533	-160
48,73600	-159
48,74667	-159
48,75733	-159
48,76800	-160
48,77867	-157
48,78933	-169
48,80000	-167
48,81067	-173
48,82133	-175
48,83200	-167
48,84267	-160
48,85333	-161
48,86400	-162
48,87467	-162
48,88533	-170
48,89600	-160
48,90667	-171
48,91733	-174
48,92800	-178
48,93867	-178
48,94933	-172
48,96000	-172
48,97067	-175
48,98133	-161
48,99200	-164
49,00267	-165
49,01333	-165
49,02400	-165
49,03467	-162
49,04533	-170
49,05600	-163
49,06667	-163
49,07733	-156
49,08800	-163
49,09867	-165
49,10933	-169
49,12000	-165
49,13067	-163
49,14133	-166
49,15200	-169
49,16267	-160
49,17333	-161
49,18400	-169
49,19467	-162
49,20533	-165
49,21600	-165
49,22667	-163
49,23733	-161
49,24800	-160
49,25867	-162
49,26933	-165
49,28000	-165
49,29067	-167
49,30133	-152
49,31200	-162
49,32267	-166
49,33333	-166
49,34400	-158
49,35467	-163
49,36533	-163
49,37600	-169
49,38667	-161
49,39733	-162
49,40800	-158
49,41867	-165
49,42933	-159
49,44000	-156
49,45067	-164
49,46133	-161
49,47200	-160
49,48267	-159
49,49333	-156
49,50400	-164
49,51467	-163
49,52533	-162
49,53600	-164
49,54667	-154
49,55733	-161
49,56800	-163
49,57867	-156
49,58933	-160
49,60000	-161
49,61067	-159
49,62133	-154
49,63200	-170
49,64267	-170
49,65333	-175
49,66400	-172
49,67467	-173
49,68533	-177
49,69600	-175
49,70667	-169
49,71733	-171
49,72800	-172
49,73867	-172
49,74933	-173
49,76000	-174
49,77067	-174
49,78133	-173
49,79200	-176
49,80267	-180
49,81333	-183
49,82400	-183
49,83467	-186
49,84533	-189
49,85600	-184
49,86667	-182
49,87733	-193
49,88800	-188
49,89867	-180
49,90933	-183
49,92000	-186
49,93067	-185
49,94133	-186
49,95200	-190
49,96267	-194
49,97333	-201
49,98400	-200
49,99467	-200
50,00533	-189


