[Header]
Application Name	LabSolutions
Version	5.73
Data File Name	C:\Users\Public\DADOS\Ricardo borges\RMBorges\26.02.25\CHA VERDE 3.lcd
Output Date	26/02/2025
Output Time	22:51:33

[File Information]
Type	Data File
Generated	26/02/2025 22:01:05
Generated by	System Administrator
Modified	26/02/2025 22:51:33
Modified by	System Administrator

[Sample Information]
Operator Name	System Administrator
Acquired	26/02/2025 22:01:29
Sample Type	0:Unknown
Level	0
Sample Name	CHA VERDE 3
Sample ID	CHA VERDE 3
ISTD Amount1	1
ISTD Amount2	1
ISTD Amount3	1
ISTD Amount4	1
ISTD Amount5	1
ISTD Amount6	1
ISTD Amount7	1
ISTD Amount8	1
ISTD Amount9	1
ISTD Amount10	1
ISTD Amount11	1
ISTD Amount12	1
ISTD Amount13	1
ISTD Amount14	1
ISTD Amount15	1
ISTD Amount16	1
ISTD Amount17	1
ISTD Amount18	1
ISTD Amount19	1
ISTD Amount20	1
ISTD Amount21	1
ISTD Amount22	1
ISTD Amount23	1
ISTD Amount24	1
ISTD Amount25	1
ISTD Amount26	1
ISTD Amount27	1
ISTD Amount28	1
ISTD Amount29	1
ISTD Amount30	1
ISTD Amount31	1
ISTD Amount32	1
Sample Amount	1
Dilution Factor	1
Vial#	17
Injection Volume	10

[Original Files]
Data File	C:\Users\Public\DADOS\Ricardo borges\RMBorges\26.02.25\CHA VERDE 3.lcd
Method File	C:\Users\Public\MÉTODOS\MÉTODOS HPLC AUTOMÁTICO\RICARDO BORGES\RMBorges\sciffee\experimental 1 - pool.lcm
Batch File	C:\Users\Public\DADOS\Ricardo borges\RMBorges\26.02.25\BATCH_RM_MIX POOL_26.02.2025.lcb
Report Format File	C:\LabSolutions\System\Default.lsr

[File Description]


[Configuration]
Instrument Name	HPLC analítico (automático)
Instrument #	1
Line #	1
# of Detectors	1
Detector ID	PDA
Detector Name	PDA
# of Channels	1

[Peak Table(PDA-Ch1)]
# of Peaks	86
Peak#	R.Time	I.Time	F.Time	Area	Height	A/H	Conc.	Mark	ID#	Name	k'	Plate #	Plate Ht.	Tailing	Resolution	Sep.Factor	Area Ratio	Height Ratio	Conc. %	Norm Conc.
1	1,544	1,269	1,696	799491	65924	12,127	0,000	   			0,000	197	763,077	0,000	0,000	0,000	0	0	0,000	0,000
2	1,752	1,696	1,995	522170	62513	8,353	0,000	 V 			0,135	1256	119,456	0,000	0,654	0,000	0	0	0,000	0,000
3	2,091	1,995	2,229	563835	73424	7,679	0,000	 V 			0,355	1436	104,488	0,000	1,618	2,622	0	0	0,000	0,000
4	2,306	2,229	2,549	430665	37959	11,345	0,000	 V 			0,494	719	208,604	0,000	0,761	1,392	0	0	0,000	0,000
5	2,647	2,549	2,720	132830	14463	9,184	0,000	 V 			0,715	117	1283,194	0,000	0,516	1,448	0	0	0,000	0,000
6	2,787	2,720	2,976	168284	14228	11,827	0,000	 V 			0,806	113	1324,906	0,000	0,138	1,127	0	0	0,000	0,000
7	3,038	2,976	3,104	55975	7450	7,513	0,000	 V 			0,968	27	5579,331	0,000	0,148	1,202	0	0	0,000	0,000
8	3,289	3,104	3,584	3549308	425818	8,335	0,000	 V 			1,131	3351	44,764	1,285	0,195	1,168	0	0	0,000	0,000
9	3,701	3,584	3,925	185508	11345	16,351	0,000	 V 			1,398	360	416,471	0,000	0,818	1,236	0	0	0,000	0,000
10	4,368	3,925	5,643	1081055	58854	18,368	0,000	SV 			1,830	2840	52,810	0,000	1,204	1,309	0	0	0,000	0,000
11	4,889	4,768	4,981	5415	626	8,648	0,000	T  			2,167	2214	67,765	0,000	1,401	1,184	0	0	0,000	0,000
12	5,180	4,981	5,419	13676	754	18,134	0,000	TV 			2,356	809	185,382	0,000	0,509	1,087	0	0	0,000	0,000
13	5,523	5,429	5,643	1725	287	6,000	0,000	T  			2,578	14454	10,378	1,160	0,752	1,094	0	0	0,000	0,000
14	6,073	5,643	6,133	135483	6757	20,050	0,000	 V 			2,935	94	1599,911	0,000	0,409	1,138	0	0	0,000	0,000
15	6,434	6,133	6,656	569080	39855	14,279	0,000	 V 			3,169	5398	27,787	0,000	0,252	1,080	0	0	0,000	0,000
16	6,848	6,656	7,968	2582219	136518	18,915	0,000	SV 			3,437	4807	31,206	0,000	1,110	1,085	0	0	0,000	0,000
17	7,791	7,616	7,968	46923	4712	9,959	0,000	T  			4,048	12289	12,206	1,027	2,791	1,178	0	0	0,000	0,000
18	8,172	7,968	8,331	434446	32835	13,231	0,000	 V 			4,294	7042	21,302	0,000	1,134	1,061	0	0	0,000	0,000
19	8,537	8,331	8,821	3487520	301938	11,550	0,000	 V 			4,531	12235	12,260	0,000	1,045	1,055	0	0	0,000	0,000
20	8,943	8,821	9,323	489722	27913	17,544	0,000	 V 			4,794	3593	41,747	0,000	0,897	1,058	0	0	0,000	0,000
21	9,549	9,323	9,835	1414212	129243	10,942	0,000	 V 			5,187	18705	8,019	0,000	1,385	1,082	0	0	0,000	0,000
22	10,036	9,835	10,197	393908	27120	14,525	0,000	 V 			5,502	8771	17,102	0,000	1,376	1,061	0	0	0,000	0,000
23	10,324	10,197	10,645	329967	17423	18,938	0,000	 V 			5,689	5029	29,824	0,000	0,569	1,034	0	0	0,000	0,000
24	10,688	10,645	10,795	76409	8764	8,718	0,000	 V 			5,924	13	11815,322	0,000	0,058	1,041	0	0	0,000	0,000
25	11,154	10,795	11,467	1683298	130571	12,892	0,000	 V 			6,226	19492	7,695	0,000	0,076	1,051	0	0	0,000	0,000
26	11,675	11,467	11,861	325002	18488	17,579	0,000	 V 			6,564	5767	26,009	0,000	1,114	1,054	0	0	0,000	0,000
27	12,095	11,861	12,597	17939130	1490896	12,032	0,000	 V 			6,836	22029	6,809	1,441	0,892	1,041	0	0	0,000	0,000
28	12,778	12,597	12,939	841327	75769	11,104	0,000	 V 			7,278	27228	5,509	0,000	2,150	1,065	0	0	0,000	0,000
29	13,089	12,939	15,787	18824873	924794	20,356	0,000	SV 			7,480	11224	13,364	3,125	0,773	1,028	0	0	0,000	0,000
30	13,844	13,739	14,005	150316	19467	7,721	0,000	T  			7,969	59554	2,519	1,225	2,095	1,065	0	0	0,000	0,000
31	14,389	14,240	14,763	148480	12470	11,907	0,000	T  			8,322	43219	3,471	1,797	2,163	1,044	0	0	0,000	0,000
32	15,146	14,773	15,339	413151	38061	10,855	0,000	T  			8,812	44481	3,372	0,000	2,683	1,059	0	0	0,000	0,000
33	15,436	15,339	15,776	94949	7147	13,285	0,000	TV 			9,001	23125	6,486	0,000	0,839	1,021	0	0	0,000	0,000
34	16,078	15,787	16,800	4701370	416847	11,278	0,000	SV 			9,416	49559	3,027	1,276	1,846	1,046	0	0	0,000	0,000
35	16,742	16,640	16,800	2404	427	5,629	0,000	T  			9,846	198783	0,755	0,816	3,025	1,046	0	0	0,000	0,000
36	17,005	16,800	17,227	528482	41323	12,789	0,000	 V 			10,017	41318	3,630	0,000	1,087	1,017	0	0	0,000	0,000
37	17,408	17,227	17,771	414033	20069	20,630	0,000	 V 			10,278	17778	8,437	0,000	0,941	1,026	0	0	0,000	0,000
38	17,930	17,771	18,176	265033	16274	16,285	0,000	 V 			10,616	24445	6,136	0,000	1,063	1,033	0	0	0,000	0,000
39	18,320	18,176	18,475	148917	9221	16,150	0,000	 V 			10,869	4230	35,458	0,000	0,492	1,024	0	0	0,000	0,000
40	18,828	18,475	19,083	1890042	130671	14,464	0,000	 V 			11,198	41330	3,629	0,000	0,678	1,030	0	0	0,000	0,000
41	19,156	19,083	19,328	171245	12975	13,198	0,000	 V 			11,411	3512	42,712	0,000	0,395	1,019	0	0	0,000	0,000
42	19,471	19,328	19,541	129717	10285	12,612	0,000	 V 			11,615	192	780,304	0,000	0,091	1,018	0	0	0,000	0,000
43	19,681	19,541	19,797	198805	15525	12,806	0,000	 V 			11,750	15568	9,635	0,000	0,067	1,012	0	0	0,000	0,000
44	19,886	19,797	20,224	229029	13627	16,807	0,000	 V 			11,883	10006	14,991	0,000	0,288	1,011	0	0	0,000	0,000
45	20,424	20,224	20,565	310483	24164	12,849	0,000	 V 			12,232	44649	3,360	0,000	0,910	1,029	0	0	0,000	0,000
46	20,694	20,565	21,141	373797	20171	18,531	0,000	 V 			12,407	30909	4,853	0,000	0,629	1,014	0	0	0,000	0,000
47	21,384	21,141	21,451	599370	59594	10,058	0,000	 V 			12,854	27501	5,454	0,000	1,399	1,036	0	0	0,000	0,000
48	21,627	21,451	21,941	2917232	245749	11,871	0,000	 V 			13,011	72426	2,071	0,000	0,582	1,012	0	0	0,000	0,000
49	22,141	21,941	22,304	251009	17894	14,028	0,000	 V 			13,344	45517	3,296	0,000	1,395	1,026	0	0	0,000	0,000
50	22,387	22,304	22,560	118245	8998	13,141	0,000	 V 			13,504	5779	25,955	0,000	0,309	1,012	0	0	0,000	0,000
51	22,727	22,560	22,955	174020	10492	16,586	0,000	 V 			13,724	29388	5,104	0,000	0,398	1,016	0	0	0,000	0,000
52	23,141	22,955	23,221	130992	10897	12,021	0,000	 V 			13,992	11047	13,578	0,000	0,586	1,020	0	0	0,000	0,000
53	23,416	23,221	23,520	302605	21782	13,892	0,000	 V 			14,170	21320	7,036	0,000	0,361	1,013	0	0	0,000	0,000
54	23,610	23,520	23,872	258792	19434	13,316	0,000	 V 			14,296	15596	9,618	0,000	0,277	1,009	0	0	0,000	0,000
55	24,125	23,872	24,587	1407622	102814	13,691	0,000	 V 			14,630	72573	2,067	1,074	0,926	1,023	0	0	0,000	0,000
56	24,721	24,587	24,832	39446	2927	13,474	0,000	 V 			15,016	8043	18,650	0,000	0,816	1,026	0	0	0,000	0,000
57	24,931	24,832	25,024	29468	2729	10,797	0,000	 V 			15,152	5726	26,198	0,000	0,174	1,009	0	0	0,000	0,000
58	25,199	25,024	25,408	78310	5084	15,404	0,000	 V 			15,325	48138	3,116	0,000	0,301	1,011	0	0	0,000	0,000
59	25,547	25,408	25,653	36288	2884	12,581	0,000	 V 			15,551	20663	7,259	0,000	0,596	1,015	0	0	0,000	0,000
60	25,786	25,653	25,952	39291	2420	16,233	0,000	 V 			15,706	3602	41,642	0,000	0,197	1,010	0	0	0,000	0,000
61	26,159	25,952	26,432	54397	2492	21,829	0,000	 V 			15,947	14020	10,699	0,000	0,287	1,015	0	0	0,000	0,000
62	26,714	26,432	26,837	43177	2264	19,075	0,000	 V 			16,307	13633	11,003	0,000	0,617	1,023	0	0	0,000	0,000
63	26,931	26,837	27,083	25846	2149	12,026	0,000	 V 			16,448	16754	8,953	0,000	0,248	1,009	0	0	0,000	0,000
64	27,313	27,083	27,467	23875	1301	18,358	0,000	 V 			16,695	1903	78,834	0,000	0,229	1,015	0	0	0,000	0,000
65	27,640	27,467	27,808	47769	4397	10,865	0,000	 V 			16,907	134770	1,113	0,000	0,233	1,013	0	0	0,000	0,000
66	27,887	27,808	28,053	11801	1124	10,502	0,000	 V 			17,067	18134	8,272	0,000	0,437	1,009	0	0	0,000	0,000
67	28,181	28,053	28,277	5504	461	11,943	0,000	 V 			17,258	14247	10,528	0,000	0,332	1,011	0	0	0,000	0,000
68	28,966	28,277	29,077	91935	3339	27,536	0,000	 V 			17,766	4479	33,491	0,000	0,587	1,029	0	0	0,000	0,000
69	29,333	29,077	29,717	404746	28452	14,226	0,000	 V 			18,004	100788	1,488	0,000	0,349	1,013	0	0	0,000	0,000
70	30,643	29,717	30,955	327058	13845	23,624	0,000	 V 			18,852	45843	3,272	0,000	2,781	1,047	0	0	0,000	0,000
71	31,100	30,955	31,285	26350	1737	15,170	0,000	 V 			19,149	53042	2,828	0,000	0,822	1,016	0	0	0,000	0,000
72	31,468	31,285	31,669	24569	1628	15,088	0,000	 V 			19,387	64915	2,311	0,000	0,711	1,012	0	0	0,000	0,000
73	31,855	31,669	32,149	27874	2393	11,646	0,000	 V 			19,638	158754	0,945	0,000	0,952	1,013	0	0	0,000	0,000
74	32,480	32,320	32,555	1824	201	9,067	0,000	   			20,042	395505	0,379	0,761	2,372	1,021	0	0	0,000	0,000
75	33,969	32,832	34,048	150621	7244	20,792	0,000	   			21,007	257496	0,583	0,000	6,279	1,048	0	0	0,000	0,000
76	34,485	34,048	34,539	153984	6743	22,837	0,000	 V 			21,342	7719	19,432	0,000	0,562	1,016	0	0	0,000	0,000
77	35,058	34,539	35,403	1139202	119749	9,513	0,000	 V 			21,713	653917	0,229	0,000	0,657	1,017	0	0	0,000	0,000
78	35,477	35,403	35,552	158458	21848	7,253	0,000	 V 			21,984	163534	0,917	0,000	1,597	1,012	0	0	0,000	0,000
79	35,584	35,552	35,723	127470	16157	7,889	0,000	 V 			22,054	59233	2,532	0,000	0,229	1,003	0	0	0,000	0,000
80	35,840	35,723	35,968	148633	11736	12,664	0,000	 V 			22,220	40110	3,740	0,000	0,394	1,008	0	0	0,000	0,000
81	36,025	35,968	36,085	55930	8131	6,879	0,000	 V 			22,339	40	3712,174	0,000	0,016	1,005	0	0	0,000	0,000
82	36,325	36,085	36,480	176324	8824	19,981	0,000	 V 			22,534	9146	16,401	0,000	0,025	1,009	0	0	0,000	0,000
83	36,775	36,480	36,917	114790	4381	26,202	0,000	 V 			22,825	0	0,000	0,000	0,000	1,013	0	0	0,000	0,000
84	37,032	36,917	37,141	36408	3475	10,478	0,000	 V 			22,992	89344	1,679	0,000	0,000	1,007	0	0	0,000	0,000
85	37,219	37,141	37,365	12503	1462	8,554	0,000	 V 			23,113	5980	25,086	0,000	0,154	1,005	0	0	0,000	0,000
86	38,906	38,645	39,957	1056276	37358	28,274	0,000	   			24,206	342202	0,438	2,856	1,540	1,047	0	0	0,000	0,000

[Compound Results(PDA)]
# of IDs	0

[PDA Multi Chromatogram(Ch1)]
# of Points	      4689
Interval(msec)	640
Start Time(min)	0
End Time(min)	50,0053
Intensity Units	mAU
Intensity Multiplier	1
Type	MultiChrom
Wavelength(nm)	254
Bandwidth(nm)	4
R.Time (min)	Intensity
0,00000	0
0,01067	0
0,02133	0
0,03200	0
0,04267	0
0,05333	0
0,06400	0
0,07467	0
0,08533	0
0,09600	0
0,10667	-5
0,11733	-6
0,12800	-18
0,13867	-21
0,14933	-22
0,16000	-13
0,17067	-13
0,18133	-13
0,19200	-18
0,20267	-11
0,21333	-11
0,22400	-10
0,23467	-15
0,24533	-10
0,25600	-12
0,26667	-8
0,27733	-7
0,28800	-3
0,29867	-5
0,30933	-12
0,32000	-8
0,33067	-9
0,34133	-16
0,35200	-17
0,36267	-16
0,37333	-18
0,38400	-15
0,39467	-16
0,40533	-14
0,41600	-11
0,42667	-20
0,43733	-19
0,44800	-21
0,45867	-20
0,46933	-17
0,48000	-13
0,49067	-16
0,50133	-8
0,51200	-17
0,52267	-13
0,53333	-15
0,54400	-12
0,55467	-16
0,56533	-20
0,57600	-20
0,58667	-30
0,59733	-24
0,60800	-28
0,61867	-22
0,62933	-34
0,64000	-25
0,65067	-25
0,66133	-22
0,67200	-30
0,68267	-27
0,69333	-21
0,70400	-22
0,71467	-22
0,72533	-13
0,73600	-22
0,74667	-22
0,75733	-27
0,76800	-31
0,77867	-23
0,78933	-27
0,80000	-34
0,81067	-27
0,82133	-19
0,83200	-23
0,84267	-25
0,85333	-25
0,86400	-21
0,87467	-22
0,88533	-29
0,89600	-27
0,90667	-23
0,91733	-25
0,92800	-21
0,93867	-26
0,94933	-23
0,96000	-28
0,97067	-19
0,98133	-24
0,99200	-27
1,00267	-21
1,01333	-22
1,02400	-29
1,03467	-32
1,04533	-23
1,05600	-24
1,06667	-25
1,07733	-24
1,08800	-21
1,09867	-23
1,10933	-21
1,12000	-22
1,13067	-19
1,14133	-16
1,15200	8
1,16267	15
1,17333	17
1,18400	17
1,19467	12
1,20533	14
1,21600	9
1,22667	1
1,23733	6
1,24800	15
1,25867	9
1,26933	9
1,28000	14
1,29067	30
1,30133	81
1,31200	177
1,32267	332
1,33333	528
1,34400	781
1,35467	1079
1,36533	1450
1,37600	2055
1,38667	3414
1,39733	6503
1,40800	11803
1,41867	18154
1,42933	24012
1,44000	28617
1,45067	32343
1,46133	35968
1,47200	40073
1,48267	44801
1,49333	50052
1,50400	55357
1,51467	60100
1,52533	63682
1,53600	65719
1,54667	66049
1,55733	64773
1,56800	62203
1,57867	58783
1,58933	55058
1,60000	51517
1,61067	48510
1,62133	46139
1,63200	44063
1,64267	41711
1,65333	38737
1,66400	35410
1,67467	32402
1,68533	30478
1,69600	30228
1,70667	32178
1,71733	37170
1,72800	45926
1,73867	56520
1,74933	62727
1,76000	60960
1,77067	53716
1,78133	45460
1,79200	38902
1,80267	34541
1,81333	31595
1,82400	29226
1,83467	26971
1,84533	24836
1,85600	23065
1,86667	21885
1,87733	21264
1,88800	20891
1,89867	20371
1,90933	19522
1,92000	18337
1,93067	16984
1,94133	15633
1,95200	14410
1,96267	13393
1,97333	12601
1,98400	12057
1,99467	11845
2,00533	12228
2,01600	13962
2,02667	18296
2,03733	26460
2,04800	38290
2,05867	51798
2,06933	63692
2,08000	71353
2,09067	73782
2,10133	71499
2,11200	65951
2,12267	58765
2,13333	51195
2,14400	44154
2,15467	38094
2,16533	33267
2,17600	29689
2,18667	27254
2,19733	25741
2,20800	24874
2,21867	24408
2,22933	24305
2,24000	24748
2,25067	26052
2,26133	28379
2,27200	31516
2,28267	34780
2,29333	37317
2,30400	38408
2,31467	37814
2,32533	35782
2,33600	32866
2,34667	29750
2,35733	26948
2,36800	24741
2,37867	23162
2,38933	22066
2,40000	21244
2,41067	20515
2,42133	19782
2,43200	19014
2,44267	18193
2,45333	17341
2,46400	16443
2,47467	15493
2,48533	14548
2,49600	13606
2,50667	12718
2,51733	11900
2,52800	11201
2,53867	10695
2,54933	10420
2,56000	10440
2,57067	10781
2,58133	11407
2,59200	12229
2,60267	13129
2,61333	13950
2,62400	14565
2,63467	14930
2,64533	15057
2,65600	14996
2,66667	14807
2,67733	14557
2,68800	14307
2,69867	14084
2,70933	13911
2,72000	13812
2,73067	13823
2,74133	13950
2,75200	14181
2,76267	14476
2,77333	14735
2,78400	14881
2,79467	14837
2,80533	14590
2,81600	14144
2,82667	13552
2,83733	12881
2,84800	12216
2,85867	11591
2,86933	11032
2,88000	10520
2,89067	10040
2,90133	9602
2,91200	9177
2,92267	8783
2,93333	8436
2,94400	8150
2,95467	7955
2,96533	7858
2,97600	7829
2,98667	7879
2,99733	7962
3,00800	8060
3,01867	8141
3,02933	8194
3,04000	8210
3,05067	8176
3,06133	8123
3,07200	8050
3,08267	7977
3,09333	7920
3,10400	7894
3,11467	7932
3,12533	8126
3,13600	8635
3,14667	9810
3,15733	12303
3,16800	17252
3,17867	26391
3,18933	41894
3,20000	66366
3,21067	101600
3,22133	148293
3,23200	204169
3,24267	265159
3,25333	324381
3,26400	374810
3,27467	410104
3,28533	426684
3,29600	424026
3,30667	404197
3,31733	371461
3,32800	330543
3,33867	286057
3,34933	241796
3,36000	200329
3,37067	163424
3,38133	131623
3,39200	105148
3,40267	83505
3,41333	66259
3,42400	52693
3,43467	42204
3,44533	34165
3,45600	28077
3,46667	23511
3,47733	20125
3,48800	17617
3,49867	15702
3,50933	14148
3,52000	12792
3,53067	11659
3,54133	10834
3,55200	10295
3,56267	9997
3,57333	9869
3,58400	9847
3,59467	9927
3,60533	10082
3,61600	10309
3,62667	10616
3,63733	10946
3,64800	11306
3,65867	11645
3,66933	11944
3,68000	12189
3,69067	12336
3,70133	12386
3,71200	12337
3,72267	12184
3,73333	11947
3,74400	11649
3,75467	11307
3,76533	10935
3,77600	10557
3,78667	10181
3,79733	9828
3,80800	9499
3,81867	9190
3,82933	8917
3,84000	8647
3,85067	8408
3,86133	8191
3,87200	8008
3,88267	7861
3,89333	7735
3,90400	7655
3,91467	7600
3,92533	7568
3,93600	7571
3,94667	7593
3,95733	7638
3,96800	7717
3,97867	7811
3,98933	7952
4,00000	8116
4,01067	8304
4,02133	8537
4,03200	8809
4,04267	9091
4,05333	9402
4,06400	9739
4,07467	10079
4,08533	10425
4,09600	10778
4,10667	11138
4,11733	11484
4,12800	11819
4,13867	12144
4,14933	12457
4,16000	12758
4,17067	13061
4,18133	13372
4,19200	13728
4,20267	14173
4,21333	14788
4,22400	15671
4,23467	16916
4,24533	18667
4,25600	21037
4,26667	24121
4,27733	27927
4,28800	32414
4,29867	37393
4,30933	42620
4,32000	47717
4,33067	52340
4,34133	56127
4,35200	58792
4,36267	60155
4,37333	60178
4,38400	58939
4,39467	56580
4,40533	53345
4,41600	49491
4,42667	45258
4,43733	40911
4,44800	36614
4,45867	32549
4,46933	28797
4,48000	25433
4,49067	22455
4,50133	19866
4,51200	17634
4,52267	15740
4,53333	14134
4,54400	12771
4,55467	11613
4,56533	10646
4,57600	9820
4,58667	9112
4,59733	8517
4,60800	8012
4,61867	7579
4,62933	7197
4,64000	6882
4,65067	6596
4,66133	6345
4,67200	6120
4,68267	5928
4,69333	5756
4,70400	5605
4,71467	5474
4,72533	5364
4,73600	5279
4,74667	5219
4,75733	5175
4,76800	5161
4,77867	5167
4,78933	5197
4,80000	5242
4,81067	5305
4,82133	5384
4,83200	5456
4,84267	5538
4,85333	5602
4,86400	5651
4,87467	5690
4,88533	5708
4,89600	5704
4,90667	5689
4,91733	5659
4,92800	5628
4,93867	5588
4,94933	5550
4,96000	5521
4,97067	5505
4,98133	5494
4,99200	5488
5,00267	5492
5,01333	5498
5,02400	5499
5,03467	5514
5,04533	5519
5,05600	5535
5,06667	5541
5,07733	5548
5,08800	5557
5,09867	5564
5,10933	5573
5,12000	5592
5,13067	5597
5,14133	5613
5,15200	5624
5,16267	5640
5,17333	5643
5,18400	5644
5,19467	5636
5,20533	5621
5,21600	5599
5,22667	5576
5,23733	5551
5,24800	5529
5,25867	5503
5,26933	5475
5,28000	5446
5,29067	5403
5,30133	5371
5,31200	5311
5,32267	5253
5,33333	5189
5,34400	5128
5,35467	5050
5,36533	4977
5,37600	4914
5,38667	4848
5,39733	4789
5,40800	4750
5,41867	4734
5,42933	4727
5,44000	4727
5,45067	4756
5,46133	4785
5,47200	4824
5,48267	4876
5,49333	4913
5,50400	4947
5,51467	4972
5,52533	4979
5,53600	4963
5,54667	4936
5,55733	4902
5,56800	4863
5,57867	4818
5,58933	4764
5,60000	4726
5,61067	4694
5,62133	4680
5,63200	4661
5,64267	4647
5,65333	4659
5,66400	4676
5,67467	4697
5,68533	4730
5,69600	4773
5,70667	4830
5,71733	4903
5,72800	4977
5,73867	5059
5,74933	5156
5,76000	5259
5,77067	5349
5,78133	5447
5,79200	5524
5,80267	5606
5,81333	5676
5,82400	5738
5,83467	5792
5,84533	5855
5,85600	5907
5,86667	5962
5,87733	6015
5,88800	6079
5,89867	6156
5,90933	6240
5,92000	6337
5,93067	6452
5,94133	6599
5,95200	6780
5,96267	6975
5,97333	7194
5,98400	7438
5,99467	7689
6,00533	7947
6,01600	8182
6,02667	8389
6,03733	8564
6,04800	8688
6,05867	8766
6,06933	8805
6,08000	8800
6,09067	8781
6,10133	8747
6,11200	8709
6,12267	8684
6,13333	8668
6,14400	8675
6,15467	8698
6,16533	8751
6,17600	8836
6,18667	8937
6,19733	9060
6,20800	9218
6,21867	9403
6,22933	9641
6,24000	9943
6,25067	10321
6,26133	10829
6,27200	11483
6,28267	12336
6,29333	13432
6,30400	14827
6,31467	16547
6,32533	18625
6,33600	21036
6,34667	23763
6,35733	26735
6,36800	29824
6,37867	32881
6,38933	35743
6,40000	38249
6,41067	40207
6,42133	41500
6,43200	42056
6,44267	41838
6,45333	40871
6,46400	39244
6,47467	37097
6,48533	34533
6,49600	31745
6,50667	28863
6,51733	26040
6,52800	23359
6,53867	20910
6,54933	18713
6,56000	16797
6,57067	15180
6,58133	13814
6,59200	12691
6,60267	11775
6,61333	11049
6,62400	10474
6,63467	10051
6,64533	9818
6,65600	9782
6,66667	10048
6,67733	10792
6,68800	12261
6,69867	14812
6,70933	18838
6,72000	24771
6,73067	32898
6,74133	43286
6,75200	55608
6,76267	69357
6,77333	83585
6,78400	97460
6,79467	110014
6,80533	120652
6,81600	128909
6,82667	134642
6,83733	137900
6,84800	138894
6,85867	137870
6,86933	135191
6,88000	131178
6,89067	126135
6,90133	120389
6,91200	114141
6,92267	107638
6,93333	101074
6,94400	94567
6,95467	88266
6,96533	82264
6,97600	76650
6,98667	71423
6,99733	66642
7,00800	62321
7,01867	58444
7,02933	54986
7,04000	51930
7,05067	49229
7,06133	46859
7,07200	44760
7,08267	42907
7,09333	41259
7,10400	39756
7,11467	38391
7,12533	37105
7,13600	35898
7,14667	34745
7,15733	33606
7,16800	32500
7,17867	31408
7,18933	30325
7,20000	29253
7,21067	28186
7,22133	27134
7,23200	26086
7,24267	25059
7,25333	24048
7,26400	23058
7,27467	22091
7,28533	21136
7,29600	20220
7,30667	19312
7,31733	18453
7,32800	17624
7,33867	16815
7,34933	16056
7,36000	15327
7,37067	14649
7,38133	14002
7,39200	13388
7,40267	12823
7,41333	12301
7,42400	11821
7,43467	11374
7,44533	10983
7,45600	10633
7,46667	10318
7,47733	10047
7,48800	9808
7,49867	9593
7,50933	9412
7,52000	9252
7,53067	9104
7,54133	8978
7,55200	8866
7,56267	8764
7,57333	8667
7,58400	8581
7,59467	8515
7,60533	8487
7,61600	8493
7,62667	8536
7,63733	8632
7,64800	8782
7,65867	8999
7,66933	9286
7,68000	9630
7,69067	10036
7,70133	10491
7,71200	10985
7,72267	11489
7,73333	11968
7,74400	12429
7,75467	12821
7,76533	13129
7,77600	13335
7,78667	13436
7,79733	13430
7,80800	13319
7,81867	13114
7,82933	12826
7,84000	12478
7,85067	12092
7,86133	11676
7,87200	11258
7,88267	10846
7,89333	10460
7,90400	10104
7,91467	9786
7,92533	9514
7,93600	9284
7,94667	9112
7,95733	9002
7,96800	8957
7,97867	9001
7,98933	9159
8,00000	9452
8,01067	9921
8,02133	10606
8,03200	11571
8,04267	12819
8,05333	14404
8,06400	16310
8,07467	18530
8,08533	21003
8,09600	23642
8,10667	26282
8,11733	28827
8,12800	31138
8,13867	33075
8,14933	34536
8,16000	35441
8,17067	35773
8,18133	35534
8,19200	34791
8,20267	33606
8,21333	32095
8,22400	30362
8,23467	28519
8,24533	26648
8,25600	24838
8,26667	23171
8,27733	21701
8,28800	20477
8,29867	19518
8,30933	18843
8,32000	18449
8,33067	18350
8,34133	18514
8,35200	18933
8,36267	19618
8,37333	20651
8,38400	22198
8,39467	24700
8,40533	28852
8,41600	35847
8,42667	47153
8,43733	64476
8,44800	88809
8,45867	120163
8,46933	156589
8,48000	195007
8,49067	231353
8,50133	262137
8,51200	285051
8,52267	299218
8,53333	305031
8,54400	303566
8,55467	296220
8,56533	284440
8,57600	269355
8,58667	252066
8,59733	233327
8,60800	213856
8,61867	194113
8,62933	174598
8,64000	155584
8,65067	137488
8,66133	120487
8,67200	104831
8,68267	90614
8,69333	77959
8,70400	66894
8,71467	57387
8,72533	49366
8,73600	42712
8,74667	37322
8,75733	33007
8,76800	29667
8,77867	27145
8,78933	25328
8,80000	24106
8,81067	23409
8,82133	23148
8,83200	23279
8,84267	23734
8,85333	24470
8,86400	25400
8,87467	26465
8,88533	27579
8,89600	28655
8,90667	29621
8,91733	30394
8,92800	30926
8,93867	31179
8,94933	31140
8,96000	30809
8,97067	30207
8,98133	29357
8,99200	28328
9,00267	27164
9,01333	25908
9,02400	24610
9,03467	23319
9,04533	22048
9,05600	20844
9,06667	19709
9,07733	18664
9,08800	17708
9,09867	16817
9,10933	16023
9,12000	15291
9,13067	14630
9,14133	14036
9,15200	13505
9,16267	13035
9,17333	12614
9,18400	12243
9,19467	11922
9,20533	11657
9,21600	11416
9,22667	11215
9,23733	11029
9,24800	10881
9,25867	10761
9,26933	10643
9,28000	10543
9,29067	10464
9,30133	10380
9,31200	10321
9,32267	10289
9,33333	10307
9,34400	10396
9,35467	10623
9,36533	11054
9,37600	11794
9,38667	12991
9,39733	14853
9,40800	17590
9,41867	21489
9,42933	26755
9,44000	33664
9,45067	42285
9,46133	52658
9,47200	64478
9,48267	77375
9,49333	90602
9,50400	103404
9,51467	114803
9,52533	123954
9,53600	130104
9,54667	132765
9,55733	131800
9,56800	127375
9,57867	119985
9,58933	110336
9,60000	99201
9,61067	87454
9,62133	75768
9,63200	64795
9,64267	54874
9,65333	46276
9,66400	39058
9,67467	33202
9,68533	28556
9,69600	24970
9,70667	22250
9,71733	20235
9,72800	18774
9,73867	17727
9,74933	16987
9,76000	16467
9,77067	16102
9,78133	15849
9,79200	15667
9,80267	15540
9,81333	15452
9,82400	15390
9,83467	15356
9,84533	15365
9,85600	15401
9,86667	15512
9,87733	15701
9,88800	15992
9,89867	16417
9,90933	17006
9,92000	17759
9,93067	18735
9,94133	19936
9,95200	21320
9,96267	22878
9,97333	24514
9,98400	26162
9,99467	27701
10,00533	29030
10,01600	30044
10,02667	30659
10,03733	30849
10,04800	30579
10,05867	29888
10,06933	28839
10,08000	27506
10,09067	25989
10,10133	24385
10,11200	22780
10,12267	21250
10,13333	19834
10,14400	18593
10,15467	17533
10,16533	16683
10,17600	16054
10,18667	15642
10,19733	15449
10,20800	15475
10,21867	15698
10,22933	16127
10,24000	16714
10,25067	17429
10,26133	18210
10,27200	19010
10,28267	19769
10,29333	20408
10,30400	20907
10,31467	21199
10,32533	21275
10,33600	21147
10,34667	20804
10,35733	20306
10,36800	19678
10,37867	18983
10,38933	18252
10,40000	17531
10,41067	16852
10,42133	16245
10,43200	15708
10,44267	15261
10,45333	14883
10,46400	14568
10,47467	14317
10,48533	14116
10,49600	13938
10,50667	13797
10,51733	13679
10,52800	13569
10,53867	13465
10,54933	13356
10,56000	13255
10,57067	13146
10,58133	13046
10,59200	12960
10,60267	12884
10,61333	12818
10,62400	12780
10,63467	12755
10,64533	12745
10,65600	12752
10,66667	12769
10,67733	12776
10,68800	12770
10,69867	12748
10,70933	12698
10,72000	12652
10,73067	12572
10,74133	12493
10,75200	12407
10,76267	12328
10,77333	12262
10,78400	12221
10,79467	12211
10,80533	12229
10,81600	12283
10,82667	12357
10,83733	12452
10,84800	12556
10,85867	12675
10,86933	12803
10,88000	12930
10,89067	13052
10,90133	13180
10,91200	13325
10,92267	13495
10,93333	13726
10,94400	14055
10,95467	14531
10,96533	15251
10,97600	16310
10,98667	17869
10,99733	20120
11,00800	23267
11,01867	27529
11,02933	33156
11,04000	40232
11,05067	48862
11,06133	58909
11,07200	70187
11,08267	82164
11,09333	94336
11,10400	105929
11,11467	116306
11,12533	124783
11,13600	130879
11,14667	134232
11,15733	134774
11,16800	132583
11,17867	127959
11,18933	121305
11,20000	113161
11,21067	103989
11,22133	94310
11,23200	84525
11,24267	75058
11,25333	66112
11,26400	57914
11,27467	50522
11,28533	44015
11,29600	38365
11,30667	33539
11,31733	29454
11,32800	26050
11,33867	23233
11,34933	20922
11,36000	19035
11,37067	17500
11,38133	16252
11,39200	15245
11,40267	14441
11,41333	13814
11,42400	13328
11,43467	12981
11,44533	12752
11,45600	12628
11,46667	12615
11,47733	12682
11,48800	12841
11,49867	13084
11,50933	13402
11,52000	13802
11,53067	14265
11,54133	14797
11,55200	15411
11,56267	16086
11,57333	16838
11,58400	17635
11,59467	18480
11,60533	19348
11,61600	20210
11,62667	21015
11,63733	21718
11,64800	22303
11,65867	22709
11,66933	22911
11,68000	22913
11,69067	22706
11,70133	22325
11,71200	21804
11,72267	21192
11,73333	20535
11,74400	19879
11,75467	19264
11,76533	18710
11,77600	18216
11,78667	17782
11,79733	17408
11,80800	17079
11,81867	16785
11,82933	16532
11,84000	16324
11,85067	16193
11,86133	16174
11,87200	16312
11,88267	16679
11,89333	17415
11,90400	18776
11,91467	21334
11,92533	26048
11,93600	34732
11,94667	50235
11,95733	77114
11,96800	121014
11,97867	189021
11,98933	286650
12,00000	417396
12,01067	577271
12,02133	756770
12,03200	939932
12,04267	1111660
12,05333	1257687
12,06400	1369864
12,07467	1445547
12,08533	1486034
12,09600	1495499
12,10667	1478595
12,11733	1439954
12,12800	1384242
12,13867	1315193
12,14933	1236427
12,16000	1150362
12,17067	1060216
12,18133	967490
12,19200	874660
12,20267	783080
12,21333	694818
12,22400	610573
12,23467	531709
12,24533	458966
12,25600	392916
12,26667	333951
12,27733	281798
12,28800	236498
12,29867	197525
12,30933	164538
12,32000	136728
12,33067	113581
12,34133	94429
12,35200	78772
12,36267	65988
12,37333	55622
12,38400	47237
12,39467	40513
12,40533	35135
12,41600	30858
12,42667	27488
12,43733	24855
12,44800	22825
12,45867	21280
12,46933	20131
12,48000	19283
12,49067	18672
12,50133	18221
12,51200	17887
12,52267	17626
12,53333	17404
12,54400	17194
12,55467	16984
12,56533	16773
12,57600	16588
12,58667	16449
12,59733	16404
12,60800	16533
12,61867	16912
12,62933	17689
12,64000	19035
12,65067	21089
12,66133	24049
12,67200	28027
12,68267	33111
12,69333	39194
12,70400	46094
12,71467	53427
12,72533	60742
12,73600	67493
12,74667	73178
12,75733	77394
12,76800	79916
12,77867	80662
12,78933	79667
12,80000	77122
12,81067	73314
12,82133	68530
12,83200	63111
12,84267	57325
12,85333	51489
12,86400	45778
12,87467	40418
12,88533	35509
12,89600	31144
12,90667	27367
12,91733	24183
12,92800	21614
12,93867	19890
12,94933	19965
12,96000	25012
12,97067	42447
12,98133	84397
12,99200	162209
13,00267	278436
13,01333	419713
13,02400	564983
13,03467	692972
13,04533	792659
13,05600	861386
13,06667	903210
13,07733	924065
13,08800	929818
13,09867	925144
13,10933	913314
13,12000	896596
13,13067	876328
13,14133	853532
13,15200	828906
13,16267	802860
13,17333	775962
13,18400	748371
13,19467	720444
13,20533	692254
13,21600	664150
13,22667	636070
13,23733	608281
13,24800	580719
13,25867	553727
13,26933	527016
13,28000	500896
13,29067	475382
13,30133	450626
13,31200	426618
13,32267	403425
13,33333	381067
13,34400	359510
13,35467	338899
13,36533	319130
13,37600	300300
13,38667	282328
13,39733	265304
13,40800	249137
13,41867	233869
13,42933	219400
13,44000	205798
13,45067	192974
13,46133	180953
13,47200	169621
13,48267	159014
13,49333	149063
13,50400	139740
13,51467	131046
13,52533	122895
13,53600	115324
13,54667	108263
13,55733	101710
13,56800	95626
13,57867	89990
13,58933	84786
13,60000	80007
13,61067	75589
13,62133	71536
13,63200	67792
13,64267	64364
13,65333	61221
13,66400	58362
13,67467	55767
13,68533	53474
13,69600	51483
13,70667	49834
13,71733	48556
13,72800	47698
13,73867	47307
13,74933	47410
13,76000	47985
13,77067	49013
13,78133	50414
13,79200	52053
13,80267	53765
13,81333	55385
13,82400	56709
13,83467	57582
13,84533	57835
13,85600	57413
13,86667	56272
13,87733	54466
13,88800	52081
13,89867	49245
13,90933	46119
13,92000	42877
13,93067	39647
13,94133	36575
13,95200	33751
13,96267	31243
13,97333	29073
13,98400	27274
13,99467	25805
14,00533	24677
14,01600	23829
14,02667	23227
14,03733	22812
14,04800	22568
14,05867	22440
14,06933	22383
14,08000	22350
14,09067	22298
14,10133	22222
14,11200	22083
14,12267	21876
14,13333	21588
14,14400	21238
14,15467	20844
14,16533	20407
14,17600	19948
14,18667	19501
14,19733	19081
14,20800	18719
14,21867	18430
14,22933	18243
14,24000	18188
14,25067	18289
14,26133	18560
14,27200	19047
14,28267	19752
14,29333	20673
14,30400	21786
14,31467	23055
14,32533	24423
14,33600	25789
14,34667	27080
14,35733	28192
14,36800	29043
14,37867	29568
14,38933	29725
14,40000	29529
14,41067	29006
14,42133	28206
14,43200	27206
14,44267	26104
14,45333	24966
14,46400	23882
14,47467	22899
14,48533	22050
14,49600	21353
14,50667	20808
14,51733	20420
14,52800	20142
14,53867	19971
14,54933	19860
14,56000	19796
14,57067	19744
14,58133	19683
14,59200	19593
14,60267	19463
14,61333	19272
14,62400	19031
14,63467	18736
14,64533	18386
14,65600	17997
14,66667	17578
14,67733	17149
14,68800	16733
14,69867	16331
14,70933	15967
14,72000	15643
14,73067	15367
14,74133	15154
14,75200	15001
14,76267	14911
14,77333	14870
14,78400	14878
14,79467	14916
14,80533	14996
14,81600	15095
14,82667	15196
14,83733	15331
14,84800	15460
14,85867	15578
14,86933	15711
14,88000	15852
14,89067	15978
14,90133	16123
14,91200	16265
14,92267	16412
14,93333	16568
14,94400	16749
14,95467	16963
14,96533	17222
14,97600	17578
14,98667	18083
14,99733	18803
15,00800	19798
15,01867	21144
15,02933	22900
15,04000	25131
15,05067	27822
15,06133	30957
15,07200	34435
15,08267	38117
15,09333	41792
15,10400	45230
15,11467	48184
15,12533	50436
15,13600	51810
15,14667	52209
15,15733	51601
15,16800	50075
15,17867	47769
15,18933	44887
15,20000	41615
15,21067	38190
15,22133	34789
15,23200	31575
15,24267	28667
15,25333	26111
15,26400	23938
15,27467	22142
15,28533	20719
15,29600	19626
15,30667	18834
15,31733	18318
15,32800	18042
15,33867	17979
15,34933	18086
15,36000	18349
15,37067	18720
15,38133	19155
15,39200	19617
15,40267	20037
15,41333	20387
15,42400	20628
15,43467	20731
15,44533	20678
15,45600	20473
15,46667	20150
15,47733	19725
15,48800	19242
15,49867	18743
15,50933	18260
15,52000	17833
15,53067	17466
15,54133	17190
15,55200	16986
15,56267	16838
15,57333	16733
15,58400	16646
15,59467	16551
15,60533	16442
15,61600	16297
15,62667	16100
15,63733	15875
15,64800	15604
15,65867	15298
15,66933	14975
15,68000	14656
15,69067	14341
15,70133	14046
15,71200	13777
15,72267	13547
15,73333	13347
15,74400	13183
15,75467	13060
15,76533	12976
15,77600	12925
15,78667	12906
15,79733	12920
15,80800	12952
15,81867	13006
15,82933	13087
15,84000	13194
15,85067	13353
15,86133	13622
15,87200	14073
15,88267	14828
15,89333	16098
15,90400	18253
15,91467	21761
15,92533	27317
15,93600	35751
15,94667	48162
15,95733	65529
15,96800	88898
15,97867	118643
15,98933	154698
16,00000	196069
16,01067	240776
16,02133	286258
16,03200	329141
16,04267	366543
16,05333	395664
16,06400	414824
16,07467	423139
16,08533	420745
16,09600	408671
16,10667	388390
16,11733	361900
16,12800	331025
16,13867	297850
16,14933	263938
16,16000	230828
16,17067	199578
16,18133	170940
16,19200	145376
16,20267	122987
16,21333	103870
16,22400	87738
16,23467	74355
16,24533	63279
16,25600	54247
16,26667	46862
16,27733	40836
16,28800	35912
16,29867	31884
16,30933	28584
16,32000	25871
16,33067	23640
16,34133	21793
16,35200	20278
16,36267	19036
16,37333	18009
16,38400	17161
16,39467	16466
16,40533	15896
16,41600	15428
16,42667	15041
16,43733	14733
16,44800	14492
16,45867	14288
16,46933	14137
16,48000	14000
16,49067	13894
16,50133	13796
16,51200	13704
16,52267	13611
16,53333	13515
16,54400	13409
16,55467	13281
16,56533	13167
16,57600	13057
16,58667	12948
16,59733	12866
16,60800	12801
16,61867	12762
16,62933	12745
16,64000	12773
16,65067	12814
16,66133	12887
16,67200	12994
16,68267	13107
16,69333	13208
16,70400	13317
16,71467	13410
16,72533	13480
16,73600	13527
16,74667	13528
16,75733	13498
16,76800	13452
16,77867	13382
16,78933	13323
16,80000	13289
16,81067	13307
16,82133	13408
16,83200	13655
16,84267	14084
16,85333	14758
16,86400	15737
16,87467	17092
16,88533	18878
16,89600	21108
16,90667	23805
16,91733	26890
16,92800	30302
16,93867	33870
16,94933	37423
16,96000	40741
16,97067	43628
16,98133	45885
16,99200	47370
17,00267	48010
17,01333	47775
17,02400	46727
17,03467	44964
17,04533	42637
17,05600	39933
17,06667	37009
17,07733	34040
17,08800	31129
17,09867	28408
17,10933	25920
17,12000	23713
17,13067	21785
17,14133	20142
17,15200	18771
17,16267	17637
17,17333	16711
17,18400	15990
17,19467	15446
17,20533	15061
17,21600	14836
17,22667	14765
17,23733	14854
17,24800	15084
17,25867	15463
17,26933	16000
17,28000	16676
17,29067	17494
17,30133	18433
17,31200	19470
17,32267	20597
17,33333	21748
17,34400	22891
17,35467	23981
17,36533	24955
17,37600	25791
17,38667	26413
17,39733	26793
17,40800	26927
17,41867	26812
17,42933	26455
17,44000	25895
17,45067	25188
17,46133	24387
17,47200	23535
17,48267	22702
17,49333	21916
17,50400	21203
17,51467	20594
17,52533	20080
17,53600	19660
17,54667	19342
17,55733	19080
17,56800	18866
17,57867	18680
17,58933	18505
17,60000	18339
17,61067	18148
17,62133	17928
17,63200	17676
17,64267	17388
17,65333	17070
17,66400	16723
17,67467	16357
17,68533	15986
17,69600	15605
17,70667	15237
17,71733	14888
17,72800	14565
17,73867	14292
17,74933	14083
17,76000	13954
17,77067	13912
17,78133	13984
17,79200	14201
17,80267	14562
17,81333	15076
17,82400	15748
17,83467	16575
17,84533	17516
17,85600	18537
17,86667	19587
17,87733	20610
17,88800	21541
17,89867	22324
17,90933	22903
17,92000	23251
17,93067	23353
17,94133	23215
17,95200	22876
17,96267	22343
17,97333	21679
17,98400	20921
17,99467	20123
18,00533	19323
18,01600	18564
18,02667	17871
18,03733	17249
18,04800	16709
18,05867	16268
18,06933	15916
18,08000	15640
18,09067	15442
18,10133	15281
18,11200	15161
18,12267	15064
18,13333	14983
18,14400	14929
18,15467	14865
18,16533	14821
18,17600	14801
18,18667	14813
18,19733	14858
18,20800	14943
18,21867	15060
18,22933	15227
18,24000	15415
18,25067	15620
18,26133	15821
18,27200	16016
18,28267	16181
18,29333	16319
18,30400	16413
18,31467	16465
18,32533	16466
18,33600	16412
18,34667	16318
18,35733	16195
18,36800	16040
18,37867	15871
18,38933	15685
18,40000	15482
18,41067	15293
18,42133	15103
18,43200	14928
18,44267	14780
18,45333	14669
18,46400	14602
18,47467	14597
18,48533	14675
18,49600	14813
18,50667	15060
18,51733	15430
18,52800	15935
18,53867	16614
18,54933	17503
18,56000	18636
18,57067	20039
18,58133	21754
18,59200	23809
18,60267	26219
18,61333	28969
18,62400	32070
18,63467	35451
18,64533	39129
18,65600	43034
18,66667	47180
18,67733	51602
18,68800	56358
18,69867	61550
18,70933	67250
18,72000	73599
18,73067	80595
18,74133	88252
18,75200	96406
18,76267	104829
18,77333	113155
18,78400	121002
18,79467	127826
18,80533	133205
18,81600	136733
18,82667	138131
18,83733	137250
18,84800	134098
18,85867	128846
18,86933	121814
18,88000	113358
18,89067	103975
18,90133	94056
18,91200	84080
18,92267	74368
18,93333	65276
18,94400	56962
18,95467	49572
18,96533	43129
18,97600	37664
18,98667	33112
18,99733	29398
19,00800	26437
19,01867	24142
19,02933	22408
19,04000	21169
19,05067	20333
19,06133	19824
19,07200	19582
19,08267	19555
19,09333	19652
19,10400	19842
19,11467	20059
19,12533	20266
19,13600	20433
19,14667	20544
19,15733	20574
19,16800	20529
19,17867	20390
19,18933	20195
19,20000	19960
19,21067	19670
19,22133	19370
19,23200	19052
19,24267	18757
19,25333	18486
19,26400	18260
19,27467	18056
19,28533	17896
19,29600	17792
19,30667	17713
19,31733	17672
19,32800	17664
19,33867	17671
19,34933	17696
19,36000	17727
19,37067	17763
19,38133	17792
19,39200	17831
19,40267	17871
19,41333	17898
19,42400	17918
19,43467	17961
19,44533	17982
19,45600	18004
19,46667	18018
19,47733	18017
19,48800	17985
19,49867	17925
19,50933	17851
19,52000	17773
19,53067	17697
19,54133	17652
19,55200	17690
19,56267	17816
19,57333	18068
19,58400	18454
19,59467	18967
19,60533	19602
19,61600	20324
19,62667	21066
19,63733	21772
19,64800	22419
19,65867	22909
19,66933	23237
19,68000	23347
19,69067	23258
19,70133	22997
19,71200	22579
19,72267	22063
19,73333	21483
19,74400	20927
19,75467	20421
19,76533	20010
19,77600	19725
19,78667	19561
19,79733	19547
19,80800	19664
19,81867	19883
19,82933	20186
19,84000	20538
19,85067	20881
19,86133	21180
19,87200	21417
19,88267	21536
19,89333	21510
19,90400	21340
19,91467	21024
19,92533	20562
19,93600	19985
19,94667	19338
19,95733	18637
19,96800	17945
19,97867	17273
19,98933	16669
20,00000	16136
20,01067	15703
20,02133	15359
20,03200	15102
20,04267	14925
20,05333	14808
20,06400	14736
20,07467	14692
20,08533	14642
20,09600	14593
20,10667	14534
20,11733	14444
20,12800	14329
20,13867	14188
20,14933	14044
20,16000	13876
20,17067	13717
20,18133	13570
20,19200	13438
20,20267	13347
20,21333	13296
20,22400	13291
20,23467	13365
20,24533	13534
20,25600	13807
20,26667	14227
20,27733	14821
20,28800	15603
20,29867	16602
20,30933	17816
20,32000	19245
20,33067	20859
20,34133	22614
20,35200	24442
20,36267	26268
20,37333	27992
20,38400	29520
20,39467	30767
20,40533	31680
20,41600	32202
20,42667	32302
20,43733	32018
20,44800	31363
20,45867	30385
20,46933	29166
20,48000	27772
20,49067	26293
20,50133	24806
20,51200	23379
20,52267	22101
20,53333	21006
20,54400	20176
20,55467	19615
20,56533	19377
20,57600	19458
20,58667	19848
20,59733	20519
20,60800	21441
20,61867	22543
20,62933	23750
20,64000	24950
20,65067	26087
20,66133	27055
20,67200	27795
20,68267	28265
20,69333	28423
20,70400	28278
20,71467	27844
20,72533	27181
20,73600	26338
20,74667	25379
20,75733	24353
20,76800	23349
20,77867	22387
20,78933	21511
20,80000	20716
20,81067	20037
20,82133	19468
20,83200	18977
20,84267	18557
20,85333	18198
20,86400	17871
20,87467	17560
20,88533	17273
20,89600	16992
20,90667	16711
20,91733	16413
20,92800	16124
20,93867	15837
20,94933	15557
20,96000	15296
20,97067	15038
20,98133	14801
20,99200	14585
21,00267	14383
21,01333	14207
21,02400	14056
21,03467	13909
21,04533	13790
21,05600	13668
21,06667	13569
21,07733	13487
21,08800	13397
21,09867	13320
21,10933	13248
21,12000	13198
21,13067	13160
21,14133	13159
21,15200	13211
21,16267	13317
21,17333	13540
21,18400	13879
21,19467	14393
21,20533	15140
21,21600	16189
21,22667	17606
21,23733	19466
21,24800	21832
21,25867	24774
21,26933	28281
21,28000	32347
21,29067	36898
21,30133	41820
21,31200	46913
21,32267	51951
21,33333	56667
21,34400	60826
21,35467	64192
21,36533	66598
21,37600	67915
21,38667	68139
21,39733	67381
21,40800	65853
21,41867	63824
21,42933	61677
21,44000	59833
21,45067	58768
21,46133	58953
21,47200	60863
21,48267	64951
21,49333	71560
21,50400	80973
21,51467	93266
21,52533	108338
21,53600	125951
21,54667	145448
21,55733	166108
21,56800	186854
21,57867	206677
21,58933	224285
21,60000	238626
21,61067	248780
21,62133	254141
21,63200	254397
21,64267	249579
21,65333	240125
21,66400	226648
21,67467	210113
21,68533	191428
21,69600	171661
21,70667	151697
21,71733	132281
21,72800	114061
21,73867	97404
21,74933	82669
21,76000	69836
21,77067	58921
21,78133	49750
21,79200	42198
21,80267	36014
21,81333	31014
21,82400	26996
21,83467	23802
21,84533	21257
21,85600	19257
21,86667	17694
21,87733	16486
21,88800	15562
21,89867	14871
21,90933	14360
21,92000	14009
21,93067	13778
21,94133	13676
21,95200	13688
21,96267	13797
21,97333	14011
21,98400	14351
21,99467	14813
22,00533	15420
22,01600	16160
22,02667	17046
22,03733	18061
22,04800	19191
22,05867	20402
22,06933	21625
22,08000	22831
22,09067	23967
22,10133	24974
22,11200	25790
22,12267	26368
22,13333	26703
22,14400	26760
22,15467	26544
22,16533	26078
22,17600	25388
22,18667	24556
22,19733	23587
22,20800	22569
22,21867	21544
22,22933	20565
22,24000	19674
22,25067	18907
22,26133	18271
22,27200	17794
22,28267	17465
22,29333	17271
22,30400	17206
22,31467	17233
22,32533	17322
22,33600	17458
22,34667	17609
22,35733	17753
22,36800	17875
22,37867	17954
22,38933	17968
22,40000	17935
22,41067	17851
22,42133	17718
22,43200	17524
22,44267	17297
22,45333	17021
22,46400	16717
22,47467	16394
22,48533	16058
22,49600	15725
22,50667	15392
22,51733	15103
22,52800	14851
22,53867	14672
22,54933	14551
22,56000	14522
22,57067	14574
22,58133	14738
22,59200	14978
22,60267	15307
22,61333	15709
22,62400	16162
22,63467	16657
22,64533	17174
22,65600	17689
22,66667	18166
22,67733	18603
22,68800	18985
22,69867	19270
22,70933	19477
22,72000	19583
22,73067	19607
22,74133	19507
22,75200	19314
22,76267	19044
22,77333	18701
22,78400	18296
22,79467	17845
22,80533	17365
22,81600	16868
22,82667	16372
22,83733	15899
22,84800	15452
22,85867	15040
22,86933	14668
22,88000	14340
22,89067	14046
22,90133	13786
22,91200	13569
22,92267	13381
22,93333	13241
22,94400	13134
22,95467	13074
22,96533	13086
22,97600	13158
22,98667	13311
22,99733	13558
23,00800	13912
23,01867	14368
23,02933	14921
23,04000	15546
23,05067	16238
23,06133	16956
23,07200	17674
23,08267	18345
23,09333	18941
23,10400	19444
23,11467	19824
23,12533	20065
23,13600	20187
23,14667	20183
23,15733	20077
23,16800	19896
23,17867	19669
23,18933	19453
23,20000	19267
23,21067	19155
23,22133	19135
23,23200	19242
23,24267	19473
23,25333	19826
23,26400	20306
23,27467	20910
23,28533	21610
23,29600	22402
23,30667	23280
23,31733	24221
23,32800	25214
23,33867	26232
23,34933	27258
23,36000	28245
23,37067	29156
23,38133	29960
23,39200	30579
23,40267	31001
23,41333	31189
23,42400	31130
23,43467	30827
23,44533	30314
23,45600	29636
23,46667	28867
23,47733	28080
23,48800	27368
23,49867	26783
23,50933	26381
23,52000	26190
23,53067	26223
23,54133	26454
23,55200	26849
23,56267	27352
23,57333	27880
23,58400	28371
23,59467	28728
23,60533	28923
23,61600	28901
23,62667	28643
23,63733	28134
23,64800	27404
23,65867	26491
23,66933	25430
23,68000	24294
23,69067	23103
23,70133	21932
23,71200	20817
23,72267	19786
23,73333	18875
23,74400	18067
23,75467	17372
23,76533	16784
23,77600	16310
23,78667	15916
23,79733	15596
23,80800	15330
23,81867	15105
23,82933	14936
23,84000	14792
23,85067	14690
23,86133	14618
23,87200	14611
23,88267	14658
23,89333	14825
23,90400	15127
23,91467	15642
23,92533	16464
23,93600	17679
23,94667	19413
23,95733	21787
23,96800	24927
23,97867	28945
23,98933	33900
24,00000	39819
24,01067	46661
24,02133	54292
24,03200	62521
24,04267	71053
24,05333	79580
24,06400	87716
24,07467	95154
24,08533	101515
24,09600	106587
24,10667	110152
24,11733	112133
24,12800	112522
24,13867	111358
24,14933	108796
24,16000	104982
24,17067	100127
24,18133	94436
24,19200	88148
24,20267	81451
24,21333	74543
24,22400	67657
24,23467	60919
24,24533	54500
24,25600	48480
24,26667	42988
24,27733	38044
24,28800	33702
24,29867	29920
24,30933	26710
24,32000	24021
24,33067	21807
24,34133	19993
24,35200	18527
24,36267	17358
24,37333	16425
24,38400	15681
24,39467	15088
24,40533	14603
24,41600	14219
24,42667	13906
24,43733	13647
24,44800	13430
24,45867	13249
24,46933	13091
24,48000	12962
24,49067	12835
24,50133	12721
24,51200	12622
24,52267	12543
24,53333	12476
24,54400	12418
24,55467	12370
24,56533	12342
24,57600	12318
24,58667	12317
24,59733	12332
24,60800	12354
24,61867	12394
24,62933	12440
24,64000	12500
24,65067	12577
24,66133	12641
24,67200	12720
24,68267	12779
24,69333	12829
24,70400	12868
24,71467	12886
24,72533	12888
24,73600	12870
24,74667	12831
24,75733	12777
24,76800	12722
24,77867	12660
24,78933	12594
24,80000	12538
24,81067	12495
24,82133	12466
24,83200	12459
24,84267	12468
24,85333	12495
24,86400	12532
24,87467	12586
24,88533	12639
24,89600	12694
24,90667	12729
24,91733	12761
24,92800	12779
24,93867	12775
24,94933	12748
24,96000	12696
24,97067	12645
24,98133	12581
24,99200	12514
25,00267	12459
25,01333	12420
25,02400	12396
25,03467	12403
25,04533	12440
25,05600	12516
25,06667	12635
25,07733	12793
25,08800	12995
25,09867	13231
25,10933	13501
25,12000	13789
25,13067	14092
25,14133	14386
25,15200	14652
25,16267	14889
25,17333	15065
25,18400	15186
25,19467	15247
25,20533	15237
25,21600	15157
25,22667	15024
25,23733	14825
25,24800	14591
25,25867	14344
25,26933	14066
25,28000	13803
25,29067	13549
25,30133	13305
25,31200	13091
25,32267	12895
25,33333	12715
25,34400	12564
25,35467	12436
25,36533	12337
25,37600	12260
25,38667	12192
25,39733	12156
25,40800	12139
25,41867	12158
25,42933	12183
25,44000	12250
25,45067	12328
25,46133	12432
25,47200	12556
25,48267	12672
25,49333	12806
25,50400	12939
25,51467	13043
25,52533	13124
25,53600	13170
25,54667	13196
25,55733	13174
25,56800	13146
25,57867	13080
25,58933	13003
25,60000	12918
25,61067	12834
25,62133	12749
25,63200	12692
25,64267	12639
25,65333	12609
25,66400	12612
25,67467	12625
25,68533	12642
25,69600	12661
25,70667	12692
25,71733	12718
25,72800	12756
25,73867	12782
25,74933	12801
25,76000	12814
25,77067	12823
25,78133	12833
25,79200	12832
25,80267	12811
25,81333	12786
25,82400	12762
25,83467	12723
25,84533	12671
25,85600	12617
25,86667	12550
25,87733	12487
25,88800	12428
25,89867	12376
25,90933	12320
25,92000	12284
25,93067	12260
25,94133	12241
25,95200	12239
25,96267	12255
25,97333	12277
25,98400	12317
25,99467	12361
26,00533	12410
26,01600	12464
26,02667	12509
26,03733	12573
26,04800	12631
26,05867	12686
26,06933	12743
26,08000	12803
26,09067	12853
26,10133	12905
26,11200	12951
26,12267	12994
26,13333	13034
26,14400	13051
26,15467	13063
26,16533	13061
26,17600	13028
26,18667	12983
26,19733	12918
26,20800	12841
26,21867	12761
26,22933	12674
26,24000	12589
26,25067	12511
26,26133	12444
26,27200	12375
26,28267	12316
26,29333	12264
26,30400	12212
26,31467	12171
26,32533	12128
26,33600	12082
26,34667	12034
26,35733	11996
26,36800	11956
26,37867	11913
26,38933	11879
26,40000	11852
26,41067	11821
26,42133	11820
26,43200	11814
26,44267	11822
26,45333	11832
26,46400	11866
26,47467	11901
26,48533	11942
26,49600	11978
26,50667	12029
26,51733	12075
26,52800	12107
26,53867	12146
26,54933	12192
26,56000	12239
26,57067	12293
26,58133	12345
26,59200	12405
26,60267	12467
26,61333	12545
26,62400	12615
26,63467	12697
26,64533	12770
26,65600	12838
26,66667	12903
26,67733	12965
26,68800	13017
26,69867	13045
26,70933	13070
26,72000	13068
26,73067	13057
26,74133	13039
26,75200	13012
26,76267	12975
26,77333	12918
26,78400	12875
26,79467	12820
26,80533	12776
26,81600	12742
26,82667	12726
26,83733	12721
26,84800	12737
26,85867	12766
26,86933	12808
26,88000	12858
26,89067	12918
26,90133	12968
26,91200	13016
26,92267	13040
26,93333	13048
26,94400	13026
26,95467	12982
26,96533	12915
26,97600	12829
26,98667	12719
26,99733	12605
27,00800	12500
27,01867	12400
27,02933	12317
27,04000	12243
27,05067	12196
27,06133	12159
27,07200	12149
27,08267	12138
27,09333	12143
27,10400	12156
27,11467	12170
27,12533	12178
27,13600	12172
27,14667	12177
27,15733	12176
27,16800	12161
27,17867	12154
27,18933	12139
27,20000	12134
27,21067	12135
27,22133	12143
27,23200	12161
27,24267	12185
27,25333	12223
27,26400	12263
27,27467	12291
27,28533	12330
27,29600	12351
27,30667	12358
27,31733	12361
27,32800	12336
27,33867	12295
27,34933	12242
27,36000	12168
27,37067	12082
27,38133	11999
27,39200	11902
27,40267	11811
27,41333	11728
27,42400	11651
27,43467	11591
27,44533	11528
27,45600	11506
27,46667	11504
27,47733	11524
27,48800	11583
27,49867	11679
27,50933	11836
27,52000	12037
27,53067	12305
27,54133	12617
27,55200	12974
27,56267	13387
27,57333	13817
27,58400	14262
27,59467	14661
27,60533	15023
27,61600	15305
27,62667	15499
27,63733	15596
27,64800	15570
27,65867	15451
27,66933	15242
27,68000	14964
27,69067	14637
27,70133	14293
27,71200	13939
27,72267	13594
27,73333	13289
27,74400	13018
27,75467	12786
27,76533	12615
27,77600	12481
27,78667	12383
27,79733	12319
27,80800	12297
27,81867	12299
27,82933	12308
27,84000	12329
27,85067	12358
27,86133	12384
27,87200	12412
27,88267	12428
27,89333	12427
27,90400	12405
27,91467	12368
27,92533	12314
27,93600	12260
27,94667	12184
27,95733	12109
27,96800	12033
27,97867	11966
27,98933	11890
28,00000	11828
28,01067	11773
28,02133	11729
28,03200	11701
28,04267	11682
28,05333	11676
28,06400	11681
28,07467	11684
28,08533	11700
28,09600	11716
28,10667	11746
28,11733	11772
28,12800	11797
28,13867	11817
28,14933	11849
28,16000	11870
28,17067	11883
28,18133	11890
28,19200	11892
28,20267	11895
28,21333	11912
28,22400	11907
28,23467	11894
28,24533	11889
28,25600	11884
28,26667	11892
28,27733	11898
28,28800	11909
28,29867	11928
28,30933	11948
28,32000	11966
28,33067	11998
28,34133	12035
28,35200	12071
28,36267	12106
28,37333	12150
28,38400	12183
28,39467	12220
28,40533	12266
28,41600	12284
28,42667	12309
28,43733	12331
28,44800	12345
28,45867	12358
28,46933	12373
28,48000	12372
28,49067	12384
28,50133	12392
28,51200	12412
28,52267	12428
28,53333	12460
28,54400	12492
28,55467	12535
28,56533	12596
28,57600	12656
28,58667	12739
28,59733	12830
28,60800	12925
28,61867	13023
28,62933	13124
28,64000	13230
28,65067	13333
28,66133	13428
28,67200	13526
28,68267	13615
28,69333	13693
28,70400	13783
28,71467	13859
28,72533	13932
28,73600	13991
28,74667	14050
28,75733	14093
28,76800	14143
28,77867	14184
28,78933	14222
28,80000	14273
28,81067	14328
28,82133	14385
28,83200	14461
28,84267	14533
28,85333	14606
28,86400	14687
28,87467	14771
28,88533	14845
28,89600	14900
28,90667	14970
28,91733	15014
28,92800	15059
28,93867	15083
28,94933	15097
28,96000	15100
28,97067	15101
28,98133	15096
28,99200	15080
29,00267	15066
29,01333	15055
29,02400	15036
29,03467	15021
29,04533	14994
29,05600	14969
29,06667	14945
29,07733	14920
29,08800	14923
29,09867	14951
29,10933	15009
29,12000	15123
29,13067	15331
29,14133	15648
29,15200	16100
29,16267	16719
29,17333	17519
29,18400	18519
29,19467	19765
29,20533	21230
29,21600	22915
29,22667	24802
29,23733	26842
29,24800	28980
29,25867	31155
29,26933	33269
29,28000	35238
29,29067	36992
29,30133	38438
29,31200	39503
29,32267	40165
29,33333	40370
29,34400	40135
29,35467	39487
29,36533	38452
29,37600	37114
29,38667	35539
29,39733	33791
29,40800	31948
29,41867	30067
29,42933	28204
29,44000	26427
29,45067	24741
29,46133	23182
29,47200	21756
29,48267	20480
29,49333	19347
29,50400	18354
29,51467	17480
29,52533	16723
29,53600	16083
29,54667	15539
29,55733	15065
29,56800	14672
29,57867	14342
29,58933	14050
29,60000	13808
29,61067	13598
29,62133	13410
29,63200	13252
29,64267	13113
29,65333	13000
29,66400	12893
29,67467	12807
29,68533	12744
29,69600	12702
29,70667	12664
29,71733	12652
29,72800	12664
29,73867	12678
29,74933	12720
29,76000	12767
29,77067	12817
29,78133	12884
29,79200	12958
29,80267	13022
29,81333	13084
29,82400	13148
29,83467	13209
29,84533	13251
29,85600	13295
29,86667	13343
29,87733	13374
29,88800	13389
29,89867	13418
29,90933	13444
29,92000	13464
29,93067	13489
29,94133	13511
29,95200	13543
29,96267	13578
29,97333	13624
29,98400	13655
29,99467	13698
30,00533	13732
30,01600	13777
30,02667	13818
30,03733	13847
30,04800	13883
30,05867	13909
30,06933	13933
30,08000	13943
30,09067	13966
30,10133	13977
30,11200	13996
30,12267	14012
30,13333	14030
30,14400	14045
30,15467	14074
30,16533	14104
30,17600	14138
30,18667	14173
30,19733	14222
30,20800	14271
30,21867	14315
30,22933	14381
30,24000	14450
30,25067	14532
30,26133	14624
30,27200	14740
30,28267	14876
30,29333	15055
30,30400	15256
30,31467	15517
30,32533	15807
30,33600	16156
30,34667	16555
30,35733	17007
30,36800	17495
30,37867	18020
30,38933	18550
30,40000	19079
30,41067	19580
30,42133	20041
30,43200	20440
30,44267	20763
30,45333	21006
30,46400	21183
30,47467	21296
30,48533	21353
30,49600	21400
30,50667	21462
30,51733	21563
30,52800	21734
30,53867	21989
30,54933	22363
30,56000	22816
30,57067	23364
30,58133	23958
30,59200	24564
30,60267	25143
30,61333	25653
30,62400	26035
30,63467	26270
30,64533	26318
30,65600	26182
30,66667	25843
30,67733	25325
30,68800	24650
30,69867	23845
30,70933	22933
30,72000	21966
30,73067	20990
30,74133	20025
30,75200	19101
30,76267	18234
30,77333	17467
30,78400	16782
30,79467	16179
30,80533	15657
30,81600	15228
30,82667	14880
30,83733	14594
30,84800	14373
30,85867	14188
30,86933	14049
30,88000	13936
30,89067	13841
30,90133	13770
30,91200	13710
30,92267	13670
30,93333	13637
30,94400	13618
30,95467	13615
30,96533	13639
30,97600	13673
30,98667	13709
30,99733	13765
31,00800	13841
31,01867	13922
31,02933	14015
31,04000	14108
31,05067	14201
31,06133	14275
31,07200	14342
31,08267	14388
31,09333	14401
31,10400	14405
31,11467	14383
31,12533	14351
31,13600	14294
31,14667	14222
31,15733	14151
31,16800	14081
31,17867	14023
31,18933	13959
31,20000	13898
31,21067	13844
31,22133	13807
31,23200	13782
31,24267	13762
31,25333	13736
31,26400	13732
31,27467	13715
31,28533	13710
31,29600	13715
31,30667	13732
31,31733	13746
31,32800	13778
31,33867	13816
31,34933	13854
31,36000	13908
31,37067	13962
31,38133	14029
31,39200	14094
31,40267	14163
31,41333	14238
31,42400	14297
31,43467	14360
31,44533	14413
31,45600	14439
31,46667	14452
31,47733	14444
31,48800	14420
31,49867	14371
31,50933	14313
31,52000	14237
31,53067	14144
31,54133	14040
31,55200	13935
31,56267	13823
31,57333	13703
31,58400	13603
31,59467	13497
31,60533	13406
31,61600	13326
31,62667	13265
31,63733	13213
31,64800	13172
31,65867	13146
31,66933	13140
31,68000	13158
31,69067	13200
31,70133	13263
31,71200	13341
31,72267	13447
31,73333	13586
31,74400	13745
31,75467	13927
31,76533	14119
31,77600	14323
31,78667	14528
31,79733	14733
31,80800	14933
31,81867	15097
31,82933	15226
31,84000	15321
31,85067	15382
31,86133	15377
31,87200	15329
31,88267	15234
31,89333	15108
31,90400	14959
31,91467	14782
31,92533	14592
31,93600	14410
31,94667	14226
31,95733	14054
31,96800	13892
31,97867	13748
31,98933	13624
32,00000	13525
32,01067	13437
32,02133	13367
32,03200	13308
32,04267	13263
32,05333	13227
32,06400	13201
32,07467	13182
32,08533	13161
32,09600	13139
32,10667	13122
32,11733	13121
32,12800	13112
32,13867	13115
32,14933	13113
32,16000	13115
32,17067	13105
32,18133	13108
32,19200	13116
32,20267	13121
32,21333	13124
32,22400	13125
32,23467	13134
32,24533	13138
32,25600	13137
32,26667	13146
32,27733	13144
32,28800	13160
32,29867	13163
32,30933	13173
32,32000	13187
32,33067	13209
32,34133	13235
32,35200	13269
32,36267	13310
32,37333	13353
32,38400	13402
32,39467	13455
32,40533	13509
32,41600	13555
32,42667	13603
32,43733	13639
32,44800	13660
32,45867	13679
32,46933	13693
32,48000	13694
32,49067	13693
32,50133	13684
32,51200	13673
32,52267	13663
32,53333	13651
32,54400	13644
32,55467	13637
32,56533	13638
32,57600	13641
32,58667	13648
32,59733	13657
32,60800	13665
32,61867	13690
32,62933	13711
32,64000	13729
32,65067	13758
32,66133	13783
32,67200	13817
32,68267	13845
32,69333	13889
32,70400	13929
32,71467	13973
32,72533	14015
32,73600	14062
32,74667	14106
32,75733	14155
32,76800	14204
32,77867	14262
32,78933	14325
32,80000	14383
32,81067	14444
32,82133	14509
32,83200	14575
32,84267	14650
32,85333	14720
32,86400	14802
32,87467	14893
32,88533	14978
32,89600	15071
32,90667	15175
32,91733	15274
32,92800	15388
32,93867	15495
32,94933	15602
32,96000	15706
32,97067	15816
32,98133	15919
32,99200	16020
33,00267	16128
33,01333	16222
33,02400	16319
33,03467	16412
33,04533	16508
33,05600	16612
33,06667	16715
33,07733	16806
33,08800	16911
33,09867	17021
33,10933	17116
33,12000	17220
33,13067	17317
33,14133	17426
33,15200	17525
33,16267	17621
33,17333	17726
33,18400	17835
33,19467	17937
33,20533	18034
33,21600	18135
33,22667	18231
33,23733	18325
33,24800	18429
33,25867	18518
33,26933	18611
33,28000	18710
33,29067	18805
33,30133	18895
33,31200	18982
33,32267	19062
33,33333	19154
33,34400	19248
33,35467	19334
33,36533	19427
33,37600	19520
33,38667	19605
33,39733	19705
33,40800	19789
33,41867	19890
33,42933	19991
33,44000	20090
33,45067	20196
33,46133	20308
33,47200	20443
33,48267	20595
33,49333	20782
33,50400	21002
33,51467	21244
33,52533	21487
33,53600	21707
33,54667	21886
33,55733	22014
33,56800	22097
33,57867	22130
33,58933	22151
33,60000	22152
33,61067	22157
33,62133	22177
33,63200	22218
33,64267	22282
33,65333	22368
33,66400	22449
33,67467	22525
33,68533	22604
33,69600	22683
33,70667	22759
33,71733	22840
33,72800	22931
33,73867	23024
33,74933	23119
33,76000	23203
33,77067	23300
33,78133	23389
33,79200	23479
33,80267	23572
33,81333	23658
33,82400	23747
33,83467	23850
33,84533	23962
33,85600	24073
33,86667	24213
33,87733	24352
33,88800	24509
33,89867	24761
33,90933	25162
33,92000	25788
33,93067	26674
33,94133	27682
33,95200	28595
33,96267	29134
33,97333	29171
33,98400	28772
33,99467	28154
34,00533	27533
34,01600	27022
34,02667	26678
34,03733	26509
34,04800	26457
34,05867	26496
34,06933	26567
34,08000	26632
34,09067	26690
34,10133	26737
34,11200	26785
34,12267	26842
34,13333	26902
34,14400	26980
34,15467	27075
34,16533	27191
34,17600	27321
34,18667	27485
34,19733	27677
34,20800	27876
34,21867	28082
34,22933	28305
34,24000	28526
34,25067	28759
34,26133	28960
34,27200	29139
34,28267	29267
34,29333	29356
34,30400	29413
34,31467	29448
34,32533	29485
34,33600	29551
34,34667	29626
34,35733	29724
34,36800	29831
34,37867	29987
34,38933	30170
34,40000	30420
34,41067	30713
34,42133	31042
34,43200	31349
34,44267	31612
34,45333	31815
34,46400	31937
34,47467	31995
34,48533	32010
34,49600	32011
34,50667	31995
34,51733	31994
34,52800	31990
34,53867	31993
34,54933	32006
34,56000	32025
34,57067	32056
34,58133	32098
34,59200	32164
34,60267	32229
34,61333	32311
34,62400	32402
34,63467	32473
34,64533	32538
34,65600	32607
34,66667	32680
34,67733	32755
34,68800	32832
34,69867	32902
34,70933	32969
34,72000	33038
34,73067	33110
34,74133	33200
34,75200	33305
34,76267	33428
34,77333	33579
34,78400	33734
34,79467	33878
34,80533	34016
34,81600	34154
34,82667	34307
34,83733	34468
34,84800	34623
34,85867	34746
34,86933	34832
34,88000	34900
34,89067	34963
34,90133	35027
34,91200	35097
34,92267	35190
34,93333	35292
34,94400	35436
34,95467	35670
34,96533	36263
34,97600	37917
34,98667	42076
34,99733	50352
35,00800	64028
35,01867	83362
35,02933	107104
35,04000	130449
35,05067	146048
35,06133	148722
35,07200	139476
35,08267	123859
35,09333	107355
35,10400	92934
35,11467	81557
35,12533	73006
35,13600	66862
35,14667	62582
35,15733	59680
35,16800	57652
35,17867	56039
35,18933	54588
35,20000	53236
35,21067	52013
35,22133	50954
35,23200	50083
35,24267	49352
35,25333	48748
35,26400	48226
35,27467	47774
35,28533	47379
35,29600	47010
35,30667	46705
35,31733	46428
35,32800	46218
35,33867	46082
35,34933	45942
35,36000	45656
35,37067	45184
35,38133	44663
35,39200	44229
35,40267	44016
35,41333	44188
35,42400	45019
35,43467	46754
35,44533	49181
35,45600	51562
35,46667	53106
35,47733	53529
35,48800	53060
35,49867	52093
35,50933	50814
35,52000	49383
35,53067	48068
35,54133	47237
35,55200	47147
35,56267	47677
35,57333	48326
35,58400	48529
35,59467	48105
35,60533	47257
35,61600	46299
35,62667	45444
35,63733	44748
35,64800	44183
35,65867	43743
35,66933	43412
35,68000	43185
35,69067	43038
35,70133	42938
35,71200	42888
35,72267	42870
35,73333	42882
35,74400	42914
35,75467	42961
35,76533	43087
35,77600	43298
35,78667	43655
35,79733	44178
35,80800	44782
35,81867	45336
35,82933	45680
35,84000	45765
35,85067	45683
35,86133	45546
35,87200	45356
35,88267	45095
35,89333	44744
35,90400	44359
35,91467	43979
35,92533	43670
35,93600	43401
35,94667	43212
35,95733	43073
35,96800	43011
35,97867	43014
35,98933	43085
36,00000	43185
36,01067	43290
36,02133	43353
36,03200	43339
36,04267	43278
36,05333	43194
36,06400	43120
36,07467	43063
36,08533	43051
36,09600	43074
36,10667	43129
36,11733	43209
36,12800	43304
36,13867	43440
36,14933	43607
36,16000	43783
36,17067	43955
36,18133	44100
36,19200	44231
36,20267	44355
36,21333	44486
36,22400	44593
36,23467	44660
36,24533	44665
36,25600	44609
36,26667	44552
36,27733	44616
36,28800	44863
36,29867	45283
36,30933	45721
36,32000	45987
36,33067	45973
36,34133	45726
36,35200	45371
36,36267	45014
36,37333	44732
36,38400	44512
36,39467	44331
36,40533	44155
36,41600	44016
36,42667	43882
36,43733	43796
36,44800	43732
36,45867	43686
36,46933	43655
36,48000	43646
36,49067	43659
36,50133	43667
36,51200	43682
36,52267	43692
36,53333	43705
36,54400	43714
36,55467	43729
36,56533	43733
36,57600	43733
36,58667	43745
36,59733	43743
36,60800	43745
36,61867	43751
36,62933	43779
36,64000	43801
36,65067	43850
36,66133	43902
36,67200	43960
36,68267	44018
36,69333	44059
36,70400	44080
36,71467	44104
36,72533	44140
36,73600	44189
36,74667	44278
36,75733	44381
36,76800	44446
36,77867	44457
36,78933	44407
36,80000	44313
36,81067	44208
36,82133	44111
36,83200	44025
36,84267	43976
36,85333	43939
36,86400	43925
36,87467	43910
36,88533	43903
36,89600	43905
36,90667	43903
36,91733	43899
36,92800	43904
36,93867	43912
36,94933	43953
36,96000	44023
36,97067	44135
36,98133	44314
36,99200	44548
37,00267	44806
37,01333	45030
37,02400	45185
37,03467	45210
37,04533	45129
37,05600	44959
37,06667	44746
37,07733	44538
37,08800	44344
37,09867	44189
37,10933	44092
37,12000	44019
37,13067	43981
37,14133	43970
37,15200	43979
37,16267	44008
37,17333	44084
37,18400	44170
37,19467	44268
37,20533	44365
37,21600	44405
37,22667	44392
37,23733	44347
37,24800	44276
37,25867	44183
37,26933	44096
37,28000	44037
37,29067	43995
37,30133	43968
37,31200	43943
37,32267	43926
37,33333	43918
37,34400	43909
37,35467	43895
37,36533	43892
37,37600	43895
37,38667	43899
37,39733	43898
37,40800	43905
37,41867	43916
37,42933	43916
37,44000	43926
37,45067	43925
37,46133	43929
37,47200	43947
37,48267	43957
37,49333	43971
37,50400	43980
37,51467	43997
37,52533	43991
37,53600	43989
37,54667	43995
37,55733	43992
37,56800	43994
37,57867	43996
37,58933	43996
37,60000	43995
37,61067	44004
37,62133	44012
37,63200	44022
37,64267	44031
37,65333	44037
37,66400	44049
37,67467	44059
37,68533	44066
37,69600	44070
37,70667	44081
37,71733	44092
37,72800	44101
37,73867	44119
37,74933	44140
37,76000	44165
37,77067	44179
37,78133	44194
37,79200	44202
37,80267	44196
37,81333	44183
37,82400	44172
37,83467	44175
37,84533	44187
37,85600	44183
37,86667	44194
37,87733	44218
37,88800	44238
37,89867	44252
37,90933	44263
37,92000	44261
37,93067	44257
37,94133	44246
37,95200	44223
37,96267	44206
37,97333	44192
37,98400	44171
37,99467	44151
38,00533	44135
38,01600	44133
38,02667	44129
38,03733	44126
38,04800	44118
38,05867	44120
38,06933	44118
38,08000	44109
38,09067	44117
38,10133	44120
38,11200	44120
38,12267	44126
38,13333	44134
38,14400	44135
38,15467	44135
38,16533	44137
38,17600	44141
38,18667	44149
38,19733	44162
38,20800	44168
38,21867	44178
38,22933	44186
38,24000	44198
38,25067	44205
38,26133	44209
38,27200	44220
38,28267	44212
38,29333	44207
38,30400	44205
38,31467	44203
38,32533	44191
38,33600	44188
38,34667	44189
38,35733	44181
38,36800	44178
38,37867	44179
38,38933	44173
38,40000	44179
38,41067	44182
38,42133	44184
38,43200	44184
38,44267	44186
38,45333	44199
38,46400	44195
38,47467	44203
38,48533	44206
38,49600	44209
38,50667	44211
38,51733	44220
38,52800	44227
38,53867	44224
38,54933	44230
38,56000	44232
38,57067	44221
38,58133	44233
38,59200	44240
38,60267	44236
38,61333	44241
38,62400	44248
38,63467	44253
38,64533	44272
38,65600	44285
38,66667	44296
38,67733	44320
38,68800	44329
38,69867	44343
38,70933	44367
38,72000	44388
38,73067	44424
38,74133	44492
38,75200	44606
38,76267	44806
38,77333	45136
38,78400	45663
38,79467	46477
38,80533	47700
38,81600	49455
38,82667	51801
38,83733	54791
38,84800	58391
38,85867	62361
38,86933	66372
38,88000	69950
38,89067	72642
38,90133	74055
38,91200	73974
38,92267	72441
38,93333	69706
38,94400	66194
38,95467	62350
38,96533	58609
38,97600	55269
38,98667	52493
38,99733	50329
39,00800	48727
39,01867	47575
39,02933	46774
39,04000	46229
39,05067	45844
39,06133	45565
39,07200	45359
39,08267	45189
39,09333	45046
39,10400	44923
39,11467	44801
39,12533	44676
39,13600	44560
39,14667	44440
39,15733	44316
39,16800	44197
39,17867	44054
39,18933	43921
39,20000	43777
39,21067	43623
39,22133	43462
39,23200	43296
39,24267	43120
39,25333	42938
39,26400	42764
39,27467	42566
39,28533	42355
39,29600	42140
39,30667	41925
39,31733	41696
39,32800	41460
39,33867	41235
39,34933	40994
39,36000	40751
39,37067	40513
39,38133	40267
39,39200	40033
39,40267	39828
39,41333	39607
39,42400	39367
39,43467	39151
39,44533	38952
39,45600	38763
39,46667	38549
39,47733	38327
39,48800	38115
39,49867	37882
39,50933	37603
39,52000	37309
39,53067	36983
39,54133	36621
39,55200	36236
39,56267	35860
39,57333	35499
39,58400	35142
39,59467	34769
39,60533	34333
39,61600	33801
39,62667	33151
39,63733	32392
39,64800	31522
39,65867	30547
39,66933	29461
39,68000	28296
39,69067	27117
39,70133	25920
39,71200	24706
39,72267	23466
39,73333	22195
39,74400	20940
39,75467	19703
39,76533	18487
39,77600	17329
39,78667	16232
39,79733	15210
39,80800	14237
39,81867	13311
39,82933	12460
39,84000	11674
39,85067	10952
39,86133	10261
39,87200	9628
39,88267	9060
39,89333	8539
39,90400	8048
39,91467	7610
39,92533	7197
39,93600	6815
39,94667	6472
39,95733	6155
39,96800	5847
39,97867	5578
39,98933	5331
40,00000	5096
40,01067	4876
40,02133	4666
40,03200	4478
40,04267	4297
40,05333	4135
40,06400	3971
40,07467	3828
40,08533	3682
40,09600	3547
40,10667	3428
40,11733	3311
40,12800	3186
40,13867	3077
40,14933	2973
40,16000	2878
40,17067	2780
40,18133	2687
40,19200	2603
40,20267	2538
40,21333	2458
40,22400	2378
40,23467	2301
40,24533	2232
40,25600	2165
40,26667	2101
40,27733	2045
40,28800	1988
40,29867	1931
40,30933	1867
40,32000	1820
40,33067	1768
40,34133	1719
40,35200	1666
40,36267	1620
40,37333	1581
40,38400	1525
40,39467	1485
40,40533	1439
40,41600	1393
40,42667	1357
40,43733	1313
40,44800	1273
40,45867	1235
40,46933	1194
40,48000	1160
40,49067	1123
40,50133	1090
40,51200	1054
40,52267	1020
40,53333	990
40,54400	961
40,55467	937
40,56533	905
40,57600	879
40,58667	850
40,59733	818
40,60800	792
40,61867	768
40,62933	732
40,64000	717
40,65067	689
40,66133	662
40,67200	643
40,68267	616
40,69333	597
40,70400	567
40,71467	536
40,72533	513
40,73600	491
40,74667	465
40,75733	453
40,76800	423
40,77867	396
40,78933	375
40,80000	352
40,81067	338
40,82133	313
40,83200	290
40,84267	271
40,85333	248
40,86400	227
40,87467	210
40,88533	197
40,89600	180
40,90667	159
40,91733	150
40,92800	121
40,93867	116
40,94933	99
40,96000	84
40,97067	74
40,98133	55
40,99200	44
41,00267	27
41,01333	11
41,02400	-1
41,03467	-9
41,04533	-9
41,05600	-19
41,06667	-36
41,07733	-43
41,08800	-57
41,09867	-69
41,10933	-68
41,12000	-77
41,13067	-89
41,14133	-102
41,15200	-114
41,16267	-116
41,17333	-120
41,18400	-131
41,19467	-133
41,20533	-145
41,21600	-152
41,22667	-164
41,23733	-174
41,24800	-183
41,25867	-186
41,26933	-185
41,28000	-190
41,29067	-189
41,30133	-198
41,31200	-199
41,32267	-197
41,33333	-201
41,34400	-210
41,35467	-224
41,36533	-220
41,37600	-221
41,38667	-225
41,39733	-217
41,40800	-218
41,41867	-220
41,42933	-222
41,44000	-218
41,45067	-221
41,46133	-225
41,47200	-222
41,48267	-215
41,49333	-217
41,50400	-204
41,51467	-200
41,52533	-199
41,53600	-199
41,54667	-195
41,55733	-189
41,56800	-180
41,57867	-174
41,58933	-175
41,60000	-165
41,61067	-156
41,62133	-153
41,63200	-145
41,64267	-135
41,65333	-135
41,66400	-128
41,67467	-121
41,68533	-121
41,69600	-110
41,70667	-103
41,71733	-92
41,72800	-89
41,73867	-88
41,74933	-83
41,76000	-69
41,77067	-60
41,78133	-55
41,79200	-52
41,80267	-44
41,81333	-36
41,82400	-30
41,83467	-24
41,84533	-14
41,85600	-5
41,86667	4
41,87733	5
41,88800	13
41,89867	16
41,90933	31
41,92000	30
41,93067	36
41,94133	46
41,95200	41
41,96267	51
41,97333	58
41,98400	65
41,99467	76
42,00533	74
42,01600	81
42,02667	91
42,03733	88
42,04800	94
42,05867	106
42,06933	103
42,08000	102
42,09067	107
42,10133	114
42,11200	109
42,12267	117
42,13333	117
42,14400	127
42,15467	124
42,16533	123
42,17600	135
42,18667	136
42,19733	139
42,20800	143
42,21867	147
42,22933	141
42,24000	137
42,25067	143
42,26133	146
42,27200	145
42,28267	155
42,29333	147
42,30400	147
42,31467	150
42,32533	156
42,33600	154
42,34667	153
42,35733	145
42,36800	152
42,37867	157
42,38933	153
42,40000	163
42,41067	153
42,42133	160
42,43200	158
42,44267	155
42,45333	153
42,46400	156
42,47467	159
42,48533	157
42,49600	156
42,50667	152
42,51733	151
42,52800	162
42,53867	169
42,54933	165
42,56000	159
42,57067	160
42,58133	153
42,59200	150
42,60267	150
42,61333	152
42,62400	160
42,63467	162
42,64533	162
42,65600	159
42,66667	160
42,67733	162
42,68800	160
42,69867	160
42,70933	163
42,72000	156
42,73067	157
42,74133	155
42,75200	158
42,76267	153
42,77333	156
42,78400	153
42,79467	148
42,80533	155
42,81600	156
42,82667	154
42,83733	154
42,84800	152
42,85867	155
42,86933	153
42,88000	156
42,89067	156
42,90133	154
42,91200	146
42,92267	152
42,93333	157
42,94400	161
42,95467	151
42,96533	147
42,97600	154
42,98667	158
42,99733	152
43,00800	146
43,01867	148
43,02933	149
43,04000	148
43,05067	149
43,06133	146
43,07200	161
43,08267	152
43,09333	156
43,10400	150
43,11467	148
43,12533	151
43,13600	152
43,14667	145
43,15733	150
43,16800	159
43,17867	153
43,18933	151
43,20000	156
43,21067	156
43,22133	154
43,23200	148
43,24267	142
43,25333	148
43,26400	156
43,27467	159
43,28533	152
43,29600	159
43,30667	158
43,31733	153
43,32800	153
43,33867	162
43,34933	169
43,36000	159
43,37067	149
43,38133	152
43,39200	160
43,40267	160
43,41333	154
43,42400	160
43,43467	162
43,44533	157
43,45600	159
43,46667	158
43,47733	161
43,48800	166
43,49867	163
43,50933	156
43,52000	157
43,53067	151
43,54133	154
43,55200	146
43,56267	147
43,57333	150
43,58400	149
43,59467	153
43,60533	158
43,61600	154
43,62667	153
43,63733	158
43,64800	160
43,65867	167
43,66933	163
43,68000	158
43,69067	152
43,70133	154
43,71200	151
43,72267	151
43,73333	155
43,74400	154
43,75467	171
43,76533	165
43,77600	160
43,78667	157
43,79733	160
43,80800	155
43,81867	155
43,82933	157
43,84000	154
43,85067	146
43,86133	147
43,87200	147
43,88267	141
43,89333	148
43,90400	156
43,91467	154
43,92533	145
43,93600	151
43,94667	150
43,95733	154
43,96800	155
43,97867	154
43,98933	149
44,00000	147
44,01067	145
44,02133	149
44,03200	148
44,04267	154
44,05333	152
44,06400	148
44,07467	153
44,08533	148
44,09600	148
44,10667	146
44,11733	144
44,12800	141
44,13867	145
44,14933	147
44,16000	143
44,17067	138
44,18133	141
44,19200	134
44,20267	137
44,21333	136
44,22400	142
44,23467	141
44,24533	133
44,25600	134
44,26667	135
44,27733	141
44,28800	140
44,29867	136
44,30933	135
44,32000	133
44,33067	134
44,34133	135
44,35200	137
44,36267	136
44,37333	132
44,38400	142
44,39467	140
44,40533	151
44,41600	146
44,42667	142
44,43733	140
44,44800	134
44,45867	127
44,46933	137
44,48000	133
44,49067	134
44,50133	140
44,51200	141
44,52267	139
44,53333	138
44,54400	132
44,55467	127
44,56533	129
44,57600	131
44,58667	129
44,59733	128
44,60800	129
44,61867	128
44,62933	126
44,64000	131
44,65067	131
44,66133	132
44,67200	133
44,68267	136
44,69333	139
44,70400	140
44,71467	132
44,72533	136
44,73600	126
44,74667	129
44,75733	132
44,76800	125
44,77867	124
44,78933	132
44,80000	125
44,81067	124
44,82133	126
44,83200	134
44,84267	126
44,85333	125
44,86400	124
44,87467	131
44,88533	139
44,89600	134
44,90667	128
44,91733	131
44,92800	136
44,93867	134
44,94933	131
44,96000	136
44,97067	134
44,98133	133
44,99200	129
45,00267	129
45,01333	125
45,02400	134
45,03467	132
45,04533	132
45,05600	134
45,06667	138
45,07733	131
45,08800	132
45,09867	135
45,10933	140
45,12000	134
45,13067	136
45,14133	131
45,15200	130
45,16267	128
45,17333	131
45,18400	138
45,19467	139
45,20533	138
45,21600	139
45,22667	129
45,23733	128
45,24800	134
45,25867	134
45,26933	136
45,28000	133
45,29067	133
45,30133	139
45,31200	128
45,32267	134
45,33333	141
45,34400	140
45,35467	139
45,36533	134
45,37600	137
45,38667	126
45,39733	140
45,40800	145
45,41867	133
45,42933	131
45,44000	138
45,45067	130
45,46133	125
45,47200	127
45,48267	134
45,49333	134
45,50400	139
45,51467	141
45,52533	143
45,53600	143
45,54667	135
45,55733	140
45,56800	138
45,57867	138
45,58933	144
45,60000	147
45,61067	144
45,62133	141
45,63200	136
45,64267	145
45,65333	143
45,66400	140
45,67467	135
45,68533	134
45,69600	141
45,70667	139
45,71733	140
45,72800	138
45,73867	136
45,74933	140
45,76000	144
45,77067	133
45,78133	136
45,79200	134
45,80267	141
45,81333	148
45,82400	147
45,83467	138
45,84533	137
45,85600	137
45,86667	140
45,87733	146
45,88800	139
45,89867	139
45,90933	132
45,92000	133
45,93067	140
45,94133	138
45,95200	138
45,96267	141
45,97333	140
45,98400	142
45,99467	146
46,00533	139
46,01600	137
46,02667	136
46,03733	140
46,04800	141
46,05867	144
46,06933	138
46,08000	136
46,09067	143
46,10133	141
46,11200	141
46,12267	132
46,13333	136
46,14400	138
46,15467	131
46,16533	134
46,17600	136
46,18667	126
46,19733	134
46,20800	130
46,21867	131
46,22933	134
46,24000	136
46,25067	135
46,26133	138
46,27200	130
46,28267	131
46,29333	132
46,30400	135
46,31467	135
46,32533	137
46,33600	137
46,34667	139
46,35733	139
46,36800	132
46,37867	128
46,38933	130
46,40000	134
46,41067	137
46,42133	125
46,43200	121
46,44267	123
46,45333	127
46,46400	129
46,47467	132
46,48533	125
46,49600	124
46,50667	131
46,51733	128
46,52800	130
46,53867	129
46,54933	125
46,56000	123
46,57067	121
46,58133	115
46,59200	117
46,60267	118
46,61333	114
46,62400	121
46,63467	133
46,64533	132
46,65600	122
46,66667	112
46,67733	117
46,68800	122
46,69867	121
46,70933	124
46,72000	117
46,73067	125
46,74133	118
46,75200	114
46,76267	114
46,77333	123
46,78400	120
46,79467	119
46,80533	123
46,81600	116
46,82667	117
46,83733	121
46,84800	111
46,85867	111
46,86933	118
46,88000	114
46,89067	112
46,90133	106
46,91200	109
46,92267	105
46,93333	99
46,94400	100
46,95467	99
46,96533	108
46,97600	97
46,98667	97
46,99733	99
47,00800	102
47,01867	102
47,02933	103
47,04000	96
47,05067	102
47,06133	98
47,07200	99
47,08267	100
47,09333	94
47,10400	90
47,11467	98
47,12533	102
47,13600	95
47,14667	95
47,15733	97
47,16800	92
47,17867	100
47,18933	95
47,20000	94
47,21067	92
47,22133	87
47,23200	91
47,24267	85
47,25333	84
47,26400	92
47,27467	99
47,28533	104
47,29600	95
47,30667	94
47,31733	96
47,32800	98
47,33867	101
47,34933	105
47,36000	98
47,37067	100
47,38133	109
47,39200	99
47,40267	98
47,41333	96
47,42400	100
47,43467	94
47,44533	92
47,45600	94
47,46667	92
47,47733	96
47,48800	90
47,49867	94
47,50933	85
47,52000	83
47,53067	87
47,54133	86
47,55200	87
47,56267	89
47,57333	79
47,58400	84
47,59467	82
47,60533	82
47,61600	80
47,62667	76
47,63733	70
47,64800	72
47,65867	79
47,66933	77
47,68000	77
47,69067	78
47,70133	84
47,71200	74
47,72267	73
47,73333	78
47,74400	79
47,75467	72
47,76533	73
47,77600	81
47,78667	74
47,79733	77
47,80800	67
47,81867	77
47,82933	73
47,84000	80
47,85067	80
47,86133	71
47,87200	63
47,88267	76
47,89333	67
47,90400	72
47,91467	77
47,92533	68
47,93600	74
47,94667	70
47,95733	71
47,96800	67
47,97867	66
47,98933	75
48,00000	78
48,01067	78
48,02133	72
48,03200	74
48,04267	71
48,05333	76
48,06400	71
48,07467	70
48,08533	66
48,09600	69
48,10667	75
48,11733	74
48,12800	73
48,13867	71
48,14933	63
48,16000	73
48,17067	71
48,18133	74
48,19200	70
48,20267	67
48,21333	73
48,22400	68
48,23467	72
48,24533	71
48,25600	62
48,26667	61
48,27733	67
48,28800	73
48,29867	73
48,30933	64
48,32000	66
48,33067	60
48,34133	65
48,35200	63
48,36267	75
48,37333	67
48,38400	62
48,39467	63
48,40533	61
48,41600	64
48,42667	68
48,43733	72
48,44800	70
48,45867	66
48,46933	70
48,48000	65
48,49067	61
48,50133	68
48,51200	74
48,52267	67
48,53333	64
48,54400	68
48,55467	66
48,56533	67
48,57600	70
48,58667	71
48,59733	75
48,60800	67
48,61867	66
48,62933	65
48,64000	67
48,65067	66
48,66133	65
48,67200	56
48,68267	64
48,69333	66
48,70400	65
48,71467	66
48,72533	56
48,73600	55
48,74667	49
48,75733	50
48,76800	55
48,77867	49
48,78933	53
48,80000	53
48,81067	52
48,82133	57
48,83200	64
48,84267	57
48,85333	55
48,86400	56
48,87467	53
48,88533	51
48,89600	46
48,90667	51
48,91733	51
48,92800	52
48,93867	50
48,94933	47
48,96000	54
48,97067	50
48,98133	51
48,99200	49
49,00267	50
49,01333	53
49,02400	58
49,03467	59
49,04533	53
49,05600	47
49,06667	42
49,07733	41
49,08800	48
49,09867	50
49,10933	48
49,12000	54
49,13067	50
49,14133	47
49,15200	46
49,16267	43
49,17333	35
49,18400	43
49,19467	45
49,20533	40
49,21600	43
49,22667	44
49,23733	40
49,24800	39
49,25867	46
49,26933	48
49,28000	48
49,29067	44
49,30133	39
49,31200	45
49,32267	43
49,33333	40
49,34400	34
49,35467	37
49,36533	40
49,37600	44
49,38667	45
49,39733	40
49,40800	42
49,41867	41
49,42933	43
49,44000	39
49,45067	39
49,46133	39
49,47200	44
49,48267	37
49,49333	44
49,50400	33
49,51467	34
49,52533	35
49,53600	35
49,54667	35
49,55733	30
49,56800	29
49,57867	27
49,58933	28
49,60000	33
49,61067	29
49,62133	28
49,63200	30
49,64267	35
49,65333	28
49,66400	34
49,67467	24
49,68533	33
49,69600	21
49,70667	26
49,71733	23
49,72800	24
49,73867	27
49,74933	32
49,76000	31
49,77067	31
49,78133	38
49,79200	26
49,80267	20
49,81333	21
49,82400	23
49,83467	23
49,84533	27
49,85600	27
49,86667	31
49,87733	33
49,88800	32
49,89867	35
49,90933	28
49,92000	21
49,93067	26
49,94133	21
49,95200	26
49,96267	17
49,97333	14
49,98400	11
49,99467	12
50,00533	18


