[Header]
Application Name	LabSolutions
Version	5.73
Data File Name	C:\Users\Public\DADOS\Ricardo borges\RMBorges\26.02.25\CATECHIN.lcd
Output Date	26/02/2025
Output Time	14:26:44

[File Information]
Type	Data File
Generated	26/02/2025 13:36:16
Generated by	System Administrator
Modified	26/02/2025 14:26:44
Modified by	System Administrator

[Sample Information]
Operator Name	System Administrator
Acquired	26/02/2025 13:36:40
Sample Type	0:Unknown
Level	0
Sample Name	CATECHIN
Sample ID	CATECHIN
ISTD Amount1	1
ISTD Amount2	1
ISTD Amount3	1
ISTD Amount4	1
ISTD Amount5	1
ISTD Amount6	1
ISTD Amount7	1
ISTD Amount8	1
ISTD Amount9	1
ISTD Amount10	1
ISTD Amount11	1
ISTD Amount12	1
ISTD Amount13	1
ISTD Amount14	1
ISTD Amount15	1
ISTD Amount16	1
ISTD Amount17	1
ISTD Amount18	1
ISTD Amount19	1
ISTD Amount20	1
ISTD Amount21	1
ISTD Amount22	1
ISTD Amount23	1
ISTD Amount24	1
ISTD Amount25	1
ISTD Amount26	1
ISTD Amount27	1
ISTD Amount28	1
ISTD Amount29	1
ISTD Amount30	1
ISTD Amount31	1
ISTD Amount32	1
Sample Amount	1
Dilution Factor	1
Vial#	2
Injection Volume	10

[Original Files]
Data File	C:\Users\Public\DADOS\Ricardo borges\RMBorges\26.02.25\CATECHIN.lcd
Method File	C:\Users\Public\MÉTODOS\MÉTODOS HPLC AUTOMÁTICO\RICARDO BORGES\RMBorges\sciffee\experimental 1 - pool.lcm
Batch File	C:\Users\Public\DADOS\Ricardo borges\RMBorges\26.02.25\BATCH_RM_MIX POOL_26.02.2025.lcb
Report Format File	C:\LabSolutions\System\Default.lsr

[File Description]


[Configuration]
Instrument Name	HPLC analítico (automático)
Instrument #	1
Line #	1
# of Detectors	1
Detector ID	PDA
Detector Name	PDA
# of Channels	1

[Peak Table(PDA-Ch1)]
# of Peaks	14
Peak#	R.Time	I.Time	F.Time	Area	Height	A/H	Conc.	Mark	ID#	Name	k'	Plate #	Plate Ht.	Tailing	Resolution	Sep.Factor	Area Ratio	Height Ratio	Conc. %	Norm Conc.
1	1,670	1,504	1,835	101389	16126	6,287	0,000	   			0,000	1501	99,962	1,019	0,000	0,000	0	0	0,000	0,000
2	8,958	8,661	9,312	99085	7866	12,596	0,000	   			4,363	10922	13,734	1,061	28,284	0,000	0	0	0,000	0,000
3	29,696	29,173	29,920	2457	98	25,000	0,000	   			16,780	65498	2,290	0,707	51,395	3,846	0	0	0,000	0,000
4	30,208	29,920	30,400	1608	136	11,840	0,000	   			17,086	131167	1,144	0,845	1,284	1,018	0	0	0,000	0,000
5	35,086	34,603	35,424	822631	105613	7,789	0,000	   			20,007	668739	0,224	0,000	19,307	1,171	0	0	0,000	0,000
6	35,500	35,424	35,573	122838	17521	7,011	0,000	 V 			20,255	207360	0,723	0,000	1,714	1,012	0	0	0,000	0,000
7	35,607	35,573	35,733	91879	12399	7,410	0,000	 V 			20,319	68106	2,202	0,000	0,251	1,003	0	0	0,000	0,000
8	35,876	35,733	35,989	120763	9688	12,465	0,000	 V 			20,480	76744	1,955	0,000	0,505	1,008	0	0	0,000	0,000
9	36,080	35,989	36,160	69302	7875	8,800	0,000	 V 			20,602	80944	1,853	0,000	0,398	1,006	0	0	0,000	0,000
10	36,347	36,160	36,491	99346	5945	16,710	0,000	 V 			20,762	954	157,306	0,000	0,102	1,008	0	0	0,000	0,000
11	36,800	36,491	36,896	64047	2501	25,607	0,000	 V 			21,033	0	0,000	0,000	0,000	1,013	0	0	0,000	0,000
12	37,043	36,896	37,152	23505	2270	10,355	0,000	 V 			21,179	229767	0,653	0,000	0,000	1,007	0	0	0,000	0,000
13	37,239	37,152	37,323	5326	753	7,069	0,000	 V 			21,296	175662	0,854	0,000	0,589	1,006	0	0	0,000	0,000
14	38,912	38,677	39,968	1068313	36851	28,990	0,000	   			22,298	342825	0,438	3,178	5,387	1,047	0	0	0,000	0,000

[Compound Results(PDA)]
# of IDs	0

[PDA Multi Chromatogram(Ch1)]
# of Points	      4690
Interval(msec)	640
Start Time(min)	0
End Time(min)	50,016
Intensity Units	mAU
Intensity Multiplier	1
Type	MultiChrom
Wavelength(nm)	254
Bandwidth(nm)	4
R.Time (min)	Intensity
0,00000	0
0,01067	0
0,02133	0
0,03200	0
0,04267	0
0,05333	0
0,06400	0
0,07467	0
0,08533	0
0,09600	0
0,10667	0
0,11733	-5
0,12800	-3
0,13867	-6
0,14933	-13
0,16000	-18
0,17067	-9
0,18133	-10
0,19200	-11
0,20267	-16
0,21333	-20
0,22400	-22
0,23467	-15
0,24533	-9
0,25600	-12
0,26667	-14
0,27733	-8
0,28800	-9
0,29867	-15
0,30933	-20
0,32000	-19
0,33067	-14
0,34133	-15
0,35200	-11
0,36267	-11
0,37333	-7
0,38400	-4
0,39467	-5
0,40533	-2
0,41600	-6
0,42667	-16
0,43733	-6
0,44800	-8
0,45867	-1
0,46933	-2
0,48000	-4
0,49067	-9
0,50133	-5
0,51200	-2
0,52267	4
0,53333	-2
0,54400	-7
0,55467	2
0,56533	-0
0,57600	-1
0,58667	-2
0,59733	0
0,60800	-3
0,61867	5
0,62933	-10
0,64000	-12
0,65067	-13
0,66133	-16
0,67200	-11
0,68267	-8
0,69333	-9
0,70400	-7
0,71467	-12
0,72533	-17
0,73600	-15
0,74667	-12
0,75733	-17
0,76800	-14
0,77867	-8
0,78933	-8
0,80000	-5
0,81067	-12
0,82133	-8
0,83200	-9
0,84267	-10
0,85333	-8
0,86400	-8
0,87467	-6
0,88533	-16
0,89600	-11
0,90667	-9
0,91733	-10
0,92800	-5
0,93867	-14
0,94933	-19
0,96000	-11
0,97067	-16
0,98133	-17
0,99200	-8
1,00267	-9
1,01333	-10
1,02400	-12
1,03467	-9
1,04533	-11
1,05600	-10
1,06667	-10
1,07733	-7
1,08800	-9
1,09867	-8
1,10933	-4
1,12000	-4
1,13067	-10
1,14133	-3
1,15200	-7
1,16267	-12
1,17333	-9
1,18400	-11
1,19467	-6
1,20533	-8
1,21600	-10
1,22667	-12
1,23733	-10
1,24800	-17
1,25867	-8
1,26933	-9
1,28000	-11
1,29067	-12
1,30133	-13
1,31200	-15
1,32267	-10
1,33333	-9
1,34400	-12
1,35467	-12
1,36533	-19
1,37600	-16
1,38667	-12
1,39733	-10
1,40800	-14
1,41867	-18
1,42933	-23
1,44000	-12
1,45067	-12
1,46133	-17
1,47200	-4
1,48267	-8
1,49333	-17
1,50400	-6
1,51467	-2
1,52533	-6
1,53600	-2
1,54667	14
1,55733	43
1,56800	70
1,57867	103
1,58933	110
1,60000	110
1,61067	95
1,62133	91
1,63200	477
1,64267	4219
1,65333	9992
1,66400	12333
1,67467	12407
1,68533	11580
1,69600	10171
1,70667	8543
1,71733	6715
1,72800	4513
1,73867	2142
1,74933	43
1,76000	-1597
1,77067	-2909
1,78133	-4027
1,79200	-4996
1,80267	-5764
1,81333	-6380
1,82400	-6945
1,83467	-7392
1,84533	-7515
1,85600	-7241
1,86667	-6540
1,87733	-5535
1,88800	-4397
1,89867	-3300
1,90933	-2356
1,92000	-1618
1,93067	-1088
1,94133	-711
1,95200	-461
1,96267	-294
1,97333	-191
1,98400	-127
1,99467	-92
2,00533	-68
2,01600	-48
2,02667	-35
2,03733	-30
2,04800	-29
2,05867	-30
2,06933	-26
2,08000	-25
2,09067	-30
2,10133	-17
2,11200	-15
2,12267	-16
2,13333	-14
2,14400	-20
2,15467	-18
2,16533	-15
2,17600	-11
2,18667	-13
2,19733	-11
2,20800	-7
2,21867	-10
2,22933	0
2,24000	-8
2,25067	-5
2,26133	-4
2,27200	3
2,28267	5
2,29333	14
2,30400	5
2,31467	3
2,32533	4
2,33600	5
2,34667	2
2,35733	0
2,36800	-0
2,37867	0
2,38933	-5
2,40000	-3
2,41067	-8
2,42133	-2
2,43200	1
2,44267	1
2,45333	-4
2,46400	-1
2,47467	-1
2,48533	-3
2,49600	-3
2,50667	-8
2,51733	-10
2,52800	-9
2,53867	3
2,54933	-2
2,56000	-4
2,57067	-9
2,58133	-10
2,59200	-16
2,60267	-16
2,61333	-16
2,62400	-18
2,63467	-25
2,64533	-42
2,65600	-68
2,66667	-126
2,67733	-197
2,68800	-281
2,69867	-367
2,70933	-432
2,72000	-487
2,73067	-521
2,74133	-529
2,75200	-509
2,76267	-469
2,77333	-409
2,78400	-345
2,79467	-285
2,80533	-224
2,81600	-171
2,82667	-127
2,83733	-87
2,84800	-61
2,85867	-41
2,86933	-30
2,88000	-16
2,89067	-9
2,90133	-7
2,91200	-10
2,92267	-3
2,93333	0
2,94400	-1
2,95467	-0
2,96533	-2
2,97600	4
2,98667	3
2,99733	3
3,00800	1
3,01867	4
3,02933	10
3,04000	5
3,05067	5
3,06133	4
3,07200	11
3,08267	15
3,09333	13
3,10400	13
3,11467	17
3,12533	26
3,13600	17
3,14667	12
3,15733	17
3,16800	14
3,17867	14
3,18933	11
3,20000	12
3,21067	22
3,22133	19
3,23200	2
3,24267	4
3,25333	1
3,26400	2
3,27467	-1
3,28533	-0
3,29600	-1
3,30667	3
3,31733	0
3,32800	3
3,33867	11
3,34933	7
3,36000	-3
3,37067	6
3,38133	9
3,39200	5
3,40267	3
3,41333	5
3,42400	9
3,43467	10
3,44533	13
3,45600	30
3,46667	35
3,47733	58
3,48800	73
3,49867	79
3,50933	57
3,52000	39
3,53067	9
3,54133	-15
3,55200	-27
3,56267	-29
3,57333	-43
3,58400	-43
3,59467	-37
3,60533	-39
3,61600	-36
3,62667	-34
3,63733	-34
3,64800	-33
3,65867	-34
3,66933	-17
3,68000	-7
3,69067	3
3,70133	-5
3,71200	2
3,72267	11
3,73333	21
3,74400	18
3,75467	18
3,76533	23
3,77600	18
3,78667	12
3,79733	16
3,80800	25
3,81867	22
3,82933	24
3,84000	23
3,85067	18
3,86133	23
3,87200	30
3,88267	24
3,89333	25
3,90400	20
3,91467	18
3,92533	19
3,93600	18
3,94667	18
3,95733	17
3,96800	26
3,97867	21
3,98933	19
4,00000	25
4,01067	29
4,02133	22
4,03200	24
4,04267	19
4,05333	18
4,06400	21
4,07467	27
4,08533	26
4,09600	23
4,10667	25
4,11733	18
4,12800	20
4,13867	22
4,14933	32
4,16000	25
4,17067	27
4,18133	12
4,19200	18
4,20267	15
4,21333	15
4,22400	18
4,23467	16
4,24533	15
4,25600	14
4,26667	23
4,27733	19
4,28800	15
4,29867	12
4,30933	-3
4,32000	7
4,33067	5
4,34133	9
4,35200	15
4,36267	18
4,37333	19
4,38400	19
4,39467	17
4,40533	14
4,41600	17
4,42667	22
4,43733	19
4,44800	14
4,45867	10
4,46933	13
4,48000	14
4,49067	9
4,50133	12
4,51200	13
4,52267	13
4,53333	18
4,54400	22
4,55467	25
4,56533	20
4,57600	15
4,58667	20
4,59733	21
4,60800	36
4,61867	28
4,62933	31
4,64000	31
4,65067	27
4,66133	36
4,67200	34
4,68267	36
4,69333	40
4,70400	38
4,71467	46
4,72533	47
4,73600	52
4,74667	60
4,75733	54
4,76800	58
4,77867	60
4,78933	64
4,80000	68
4,81067	75
4,82133	78
4,83200	79
4,84267	78
4,85333	78
4,86400	83
4,87467	91
4,88533	96
4,89600	96
4,90667	99
4,91733	113
4,92800	106
4,93867	106
4,94933	110
4,96000	118
4,97067	115
4,98133	115
4,99200	127
5,00267	129
5,01333	138
5,02400	127
5,03467	135
5,04533	135
5,05600	140
5,06667	138
5,07733	138
5,08800	141
5,09867	146
5,10933	142
5,12000	142
5,13067	153
5,14133	152
5,15200	146
5,16267	157
5,17333	160
5,18400	163
5,19467	169
5,20533	171
5,21600	172
5,22667	183
5,23733	175
5,24800	184
5,25867	189
5,26933	184
5,28000	188
5,29067	188
5,30133	199
5,31200	205
5,32267	203
5,33333	214
5,34400	218
5,35467	223
5,36533	229
5,37600	231
5,38667	235
5,39733	238
5,40800	250
5,41867	249
5,42933	250
5,44000	250
5,45067	252
5,46133	256
5,47200	261
5,48267	256
5,49333	261
5,50400	267
5,51467	273
5,52533	270
5,53600	282
5,54667	276
5,55733	281
5,56800	281
5,57867	292
5,58933	293
5,60000	294
5,61067	303
5,62133	296
5,63200	304
5,64267	302
5,65333	300
5,66400	306
5,67467	309
5,68533	318
5,69600	329
5,70667	333
5,71733	334
5,72800	340
5,73867	335
5,74933	330
5,76000	338
5,77067	340
5,78133	349
5,79200	355
5,80267	351
5,81333	355
5,82400	358
5,83467	361
5,84533	365
5,85600	361
5,86667	368
5,87733	374
5,88800	376
5,89867	383
5,90933	376
5,92000	384
5,93067	382
5,94133	391
5,95200	395
5,96267	399
5,97333	393
5,98400	397
5,99467	392
6,00533	399
6,01600	403
6,02667	407
6,03733	405
6,04800	400
6,05867	416
6,06933	415
6,08000	418
6,09067	419
6,10133	421
6,11200	432
6,12267	434
6,13333	439
6,14400	445
6,15467	453
6,16533	448
6,17600	451
6,18667	448
6,19733	457
6,20800	460
6,21867	462
6,22933	474
6,24000	469
6,25067	465
6,26133	477
6,27200	483
6,28267	489
6,29333	483
6,30400	487
6,31467	485
6,32533	494
6,33600	496
6,34667	506
6,35733	507
6,36800	512
6,37867	523
6,38933	525
6,40000	524
6,41067	532
6,42133	538
6,43200	539
6,44267	540
6,45333	546
6,46400	554
6,47467	565
6,48533	558
6,49600	566
6,50667	566
6,51733	565
6,52800	567
6,53867	574
6,54933	573
6,56000	566
6,57067	570
6,58133	566
6,59200	565
6,60267	562
6,61333	562
6,62400	561
6,63467	566
6,64533	558
6,65600	564
6,66667	570
6,67733	571
6,68800	570
6,69867	580
6,70933	570
6,72000	567
6,73067	576
6,74133	581
6,75200	583
6,76267	592
6,77333	589
6,78400	592
6,79467	595
6,80533	599
6,81600	607
6,82667	604
6,83733	613
6,84800	612
6,85867	607
6,86933	605
6,88000	610
6,89067	621
6,90133	618
6,91200	622
6,92267	627
6,93333	628
6,94400	635
6,95467	643
6,96533	643
6,97600	641
6,98667	641
6,99733	630
7,00800	634
7,01867	637
7,02933	649
7,04000	646
7,05067	646
7,06133	655
7,07200	661
7,08267	653
7,09333	665
7,10400	662
7,11467	666
7,12533	676
7,13600	679
7,14667	669
7,15733	670
7,16800	672
7,17867	672
7,18933	677
7,20000	686
7,21067	689
7,22133	693
7,23200	692
7,24267	690
7,25333	692
7,26400	699
7,27467	700
7,28533	703
7,29600	719
7,30667	718
7,31733	714
7,32800	718
7,33867	718
7,34933	725
7,36000	729
7,37067	729
7,38133	738
7,39200	742
7,40267	746
7,41333	742
7,42400	746
7,43467	749
7,44533	748
7,45600	747
7,46667	760
7,47733	770
7,48800	766
7,49867	775
7,50933	784
7,52000	775
7,53067	785
7,54133	784
7,55200	791
7,56267	785
7,57333	790
7,58400	794
7,59467	794
7,60533	798
7,61600	805
7,62667	810
7,63733	801
7,64800	797
7,65867	802
7,66933	809
7,68000	812
7,69067	816
7,70133	826
7,71200	822
7,72267	830
7,73333	830
7,74400	834
7,75467	843
7,76533	844
7,77600	840
7,78667	852
7,79733	853
7,80800	850
7,81867	854
7,82933	862
7,84000	873
7,85067	877
7,86133	878
7,87200	879
7,88267	872
7,89333	866
7,90400	872
7,91467	876
7,92533	876
7,93600	885
7,94667	886
7,95733	881
7,96800	890
7,97867	898
7,98933	896
8,00000	898
8,01067	905
8,02133	906
8,03200	912
8,04267	923
8,05333	919
8,06400	920
8,07467	928
8,08533	929
8,09600	937
8,10667	939
8,11733	931
8,12800	933
8,13867	935
8,14933	942
8,16000	944
8,17067	944
8,18133	948
8,19200	955
8,20267	956
8,21333	961
8,22400	960
8,23467	958
8,24533	959
8,25600	969
8,26667	968
8,27733	977
8,28800	976
8,29867	979
8,30933	983
8,32000	978
8,33067	986
8,34133	990
8,35200	996
8,36267	1006
8,37333	1000
8,38400	1003
8,39467	1013
8,40533	1018
8,41600	1015
8,42667	1020
8,43733	1026
8,44800	1029
8,45867	1027
8,46933	1030
8,48000	1038
8,49067	1041
8,50133	1046
8,51200	1048
8,52267	1054
8,53333	1044
8,54400	1051
8,55467	1054
8,56533	1060
8,57600	1071
8,58667	1064
8,59733	1069
8,60800	1064
8,61867	1072
8,62933	1070
8,64000	1073
8,65067	1078
8,66133	1081
8,67200	1091
8,68267	1100
8,69333	1108
8,70400	1117
8,71467	1138
8,72533	1158
8,73600	1212
8,74667	1281
8,75733	1377
8,76800	1512
8,77867	1692
8,78933	1930
8,80000	2220
8,81067	2588
8,82133	3031
8,83200	3541
8,84267	4109
8,85333	4721
8,86400	5364
8,87467	6009
8,88533	6647
8,89600	7239
8,90667	7775
8,91733	8230
8,92800	8592
8,93867	8857
8,94933	9003
8,96000	9042
8,97067	8955
8,98133	8764
8,99200	8452
9,00267	8045
9,01333	7565
9,02400	7020
9,03467	6441
9,04533	5834
9,05600	5239
9,06667	4658
9,07733	4127
9,08800	3644
9,09867	3207
9,10933	2836
9,12000	2521
9,13067	2254
9,14133	2039
9,15200	1865
9,16267	1728
9,17333	1619
9,18400	1539
9,19467	1476
9,20533	1421
9,21600	1388
9,22667	1365
9,23733	1340
9,24800	1320
9,25867	1307
9,26933	1301
9,28000	1300
9,29067	1291
9,30133	1292
9,31200	1290
9,32267	1294
9,33333	1294
9,34400	1303
9,35467	1302
9,36533	1297
9,37600	1301
9,38667	1298
9,39733	1298
9,40800	1303
9,41867	1307
9,42933	1316
9,44000	1316
9,45067	1319
9,46133	1323
9,47200	1319
9,48267	1319
9,49333	1327
9,50400	1328
9,51467	1331
9,52533	1337
9,53600	1339
9,54667	1348
9,55733	1341
9,56800	1336
9,57867	1346
9,58933	1341
9,60000	1342
9,61067	1347
9,62133	1349
9,63200	1360
9,64267	1369
9,65333	1365
9,66400	1367
9,67467	1369
9,68533	1375
9,69600	1381
9,70667	1378
9,71733	1380
9,72800	1382
9,73867	1387
9,74933	1396
9,76000	1395
9,77067	1401
9,78133	1410
9,79200	1409
9,80267	1411
9,81333	1412
9,82400	1416
9,83467	1417
9,84533	1419
9,85600	1422
9,86667	1430
9,87733	1429
9,88800	1433
9,89867	1431
9,90933	1440
9,92000	1451
9,93067	1455
9,94133	1450
9,95200	1455
9,96267	1460
9,97333	1459
9,98400	1461
9,99467	1465
10,00533	1477
10,01600	1484
10,02667	1489
10,03733	1493
10,04800	1493
10,05867	1501
10,06933	1494
10,08000	1499
10,09067	1505
10,10133	1516
10,11200	1522
10,12267	1522
10,13333	1510
10,14400	1525
10,15467	1524
10,16533	1532
10,17600	1533
10,18667	1538
10,19733	1538
10,20800	1548
10,21867	1541
10,22933	1538
10,24000	1549
10,25067	1546
10,26133	1540
10,27200	1552
10,28267	1559
10,29333	1553
10,30400	1558
10,31467	1560
10,32533	1563
10,33600	1562
10,34667	1573
10,35733	1580
10,36800	1579
10,37867	1578
10,38933	1581
10,40000	1583
10,41067	1577
10,42133	1588
10,43200	1589
10,44267	1592
10,45333	1594
10,46400	1599
10,47467	1603
10,48533	1608
10,49600	1608
10,50667	1613
10,51733	1621
10,52800	1620
10,53867	1629
10,54933	1628
10,56000	1623
10,57067	1632
10,58133	1636
10,59200	1639
10,60267	1638
10,61333	1641
10,62400	1656
10,63467	1656
10,64533	1660
10,65600	1667
10,66667	1666
10,67733	1669
10,68800	1676
10,69867	1672
10,70933	1675
10,72000	1682
10,73067	1686
10,74133	1684
10,75200	1686
10,76267	1689
10,77333	1704
10,78400	1711
10,79467	1708
10,80533	1714
10,81600	1713
10,82667	1718
10,83733	1721
10,84800	1725
10,85867	1728
10,86933	1728
10,88000	1727
10,89067	1735
10,90133	1737
10,91200	1741
10,92267	1742
10,93333	1747
10,94400	1739
10,95467	1750
10,96533	1746
10,97600	1746
10,98667	1752
10,99733	1758
11,00800	1766
11,01867	1770
11,02933	1774
11,04000	1772
11,05067	1775
11,06133	1780
11,07200	1782
11,08267	1793
11,09333	1796
11,10400	1796
11,11467	1798
11,12533	1806
11,13600	1811
11,14667	1818
11,15733	1814
11,16800	1820
11,17867	1826
11,18933	1832
11,20000	1827
11,21067	1840
11,22133	1843
11,23200	1842
11,24267	1840
11,25333	1841
11,26400	1841
11,27467	1852
11,28533	1852
11,29600	1857
11,30667	1857
11,31733	1861
11,32800	1864
11,33867	1866
11,34933	1874
11,36000	1872
11,37067	1874
11,38133	1873
11,39200	1880
11,40267	1888
11,41333	1892
11,42400	1888
11,43467	1891
11,44533	1890
11,45600	1896
11,46667	1889
11,47733	1901
11,48800	1902
11,49867	1907
11,50933	1923
11,52000	1921
11,53067	1928
11,54133	1930
11,55200	1930
11,56267	1927
11,57333	1928
11,58400	1933
11,59467	1940
11,60533	1951
11,61600	1952
11,62667	1955
11,63733	1960
11,64800	1957
11,65867	1957
11,66933	1960
11,68000	1963
11,69067	1962
11,70133	1969
11,71200	1971
11,72267	1981
11,73333	1976
11,74400	1988
11,75467	1992
11,76533	1994
11,77600	1994
11,78667	1998
11,79733	2004
11,80800	2006
11,81867	2006
11,82933	2007
11,84000	2012
11,85067	2014
11,86133	2027
11,87200	2023
11,88267	2033
11,89333	2038
11,90400	2040
11,91467	2041
11,92533	2042
11,93600	2051
11,94667	2059
11,95733	2067
11,96800	2061
11,97867	2082
11,98933	2081
12,00000	2077
12,01067	2080
12,02133	2088
12,03200	2085
12,04267	2089
12,05333	2095
12,06400	2098
12,07467	2095
12,08533	2104
12,09600	2102
12,10667	2107
12,11733	2107
12,12800	2112
12,13867	2118
12,14933	2131
12,16000	2136
12,17067	2137
12,18133	2139
12,19200	2138
12,20267	2148
12,21333	2155
12,22400	2155
12,23467	2156
12,24533	2161
12,25600	2162
12,26667	2164
12,27733	2169
12,28800	2180
12,29867	2174
12,30933	2178
12,32000	2181
12,33067	2186
12,34133	2188
12,35200	2192
12,36267	2192
12,37333	2190
12,38400	2195
12,39467	2205
12,40533	2201
12,41600	2215
12,42667	2226
12,43733	2221
12,44800	2218
12,45867	2224
12,46933	2231
12,48000	2240
12,49067	2243
12,50133	2254
12,51200	2254
12,52267	2248
12,53333	2250
12,54400	2256
12,55467	2263
12,56533	2264
12,57600	2265
12,58667	2271
12,59733	2272
12,60800	2276
12,61867	2284
12,62933	2280
12,64000	2280
12,65067	2287
12,66133	2302
12,67200	2298
12,68267	2307
12,69333	2303
12,70400	2306
12,71467	2313
12,72533	2313
12,73600	2323
12,74667	2327
12,75733	2329
12,76800	2326
12,77867	2332
12,78933	2337
12,80000	2351
12,81067	2351
12,82133	2358
12,83200	2354
12,84267	2362
12,85333	2361
12,86400	2375
12,87467	2369
12,88533	2378
12,89600	2384
12,90667	2381
12,91733	2390
12,92800	2397
12,93867	2397
12,94933	2400
12,96000	2402
12,97067	2407
12,98133	2411
12,99200	2417
13,00267	2414
13,01333	2419
13,02400	2424
13,03467	2423
13,04533	2437
13,05600	2438
13,06667	2443
13,07733	2452
13,08800	2451
13,09867	2458
13,10933	2452
13,12000	2455
13,13067	2461
13,14133	2462
13,15200	2473
13,16267	2477
13,17333	2481
13,18400	2486
13,19467	2486
13,20533	2488
13,21600	2490
13,22667	2497
13,23733	2505
13,24800	2493
13,25867	2504
13,26933	2505
13,28000	2516
13,29067	2518
13,30133	2520
13,31200	2519
13,32267	2523
13,33333	2532
13,34400	2535
13,35467	2532
13,36533	2539
13,37600	2539
13,38667	2543
13,39733	2550
13,40800	2560
13,41867	2558
13,42933	2565
13,44000	2573
13,45067	2577
13,46133	2580
13,47200	2578
13,48267	2585
13,49333	2586
13,50400	2593
13,51467	2601
13,52533	2610
13,53600	2610
13,54667	2618
13,55733	2618
13,56800	2623
13,57867	2631
13,58933	2635
13,60000	2638
13,61067	2645
13,62133	2647
13,63200	2650
13,64267	2655
13,65333	2664
13,66400	2671
13,67467	2676
13,68533	2680
13,69600	2681
13,70667	2688
13,71733	2695
13,72800	2702
13,73867	2706
13,74933	2710
13,76000	2709
13,77067	2719
13,78133	2726
13,79200	2724
13,80267	2727
13,81333	2734
13,82400	2740
13,83467	2743
13,84533	2744
13,85600	2743
13,86667	2756
13,87733	2761
13,88800	2764
13,89867	2763
13,90933	2770
13,92000	2773
13,93067	2785
13,94133	2785
13,95200	2791
13,96267	2791
13,97333	2799
13,98400	2810
13,99467	2815
14,00533	2814
14,01600	2811
14,02667	2817
14,03733	2823
14,04800	2818
14,05867	2821
14,06933	2832
14,08000	2843
14,09067	2841
14,10133	2844
14,11200	2851
14,12267	2858
14,13333	2861
14,14400	2864
14,15467	2866
14,16533	2876
14,17600	2882
14,18667	2888
14,19733	2891
14,20800	2897
14,21867	2893
14,22933	2897
14,24000	2914
14,25067	2921
14,26133	2914
14,27200	2931
14,28267	2932
14,29333	2935
14,30400	2946
14,31467	2950
14,32533	2956
14,33600	2955
14,34667	2964
14,35733	2972
14,36800	2971
14,37867	2971
14,38933	2981
14,40000	2985
14,41067	2998
14,42133	2996
14,43200	2997
14,44267	3004
14,45333	3007
14,46400	3018
14,47467	3025
14,48533	3026
14,49600	3028
14,50667	3027
14,51733	3035
14,52800	3044
14,53867	3054
14,54933	3065
14,56000	3061
14,57067	3064
14,58133	3062
14,59200	3074
14,60267	3086
14,61333	3088
14,62400	3089
14,63467	3095
14,64533	3101
14,65600	3109
14,66667	3117
14,67733	3115
14,68800	3115
14,69867	3129
14,70933	3140
14,72000	3143
14,73067	3150
14,74133	3151
14,75200	3157
14,76267	3160
14,77333	3163
14,78400	3163
14,79467	3180
14,80533	3183
14,81600	3186
14,82667	3194
14,83733	3199
14,84800	3207
14,85867	3207
14,86933	3206
14,88000	3208
14,89067	3223
14,90133	3230
14,91200	3240
14,92267	3244
14,93333	3242
14,94400	3239
14,95467	3255
14,96533	3261
14,97600	3266
14,98667	3268
14,99733	3263
15,00800	3270
15,01867	3273
15,02933	3283
15,04000	3281
15,05067	3289
15,06133	3294
15,07200	3302
15,08267	3309
15,09333	3308
15,10400	3312
15,11467	3325
15,12533	3330
15,13600	3330
15,14667	3335
15,15733	3334
15,16800	3336
15,17867	3338
15,18933	3345
15,20000	3350
15,21067	3360
15,22133	3367
15,23200	3368
15,24267	3377
15,25333	3378
15,26400	3383
15,27467	3381
15,28533	3390
15,29600	3399
15,30667	3402
15,31733	3403
15,32800	3407
15,33867	3410
15,34933	3410
15,36000	3418
15,37067	3421
15,38133	3433
15,39200	3434
15,40267	3444
15,41333	3442
15,42400	3442
15,43467	3447
15,44533	3449
15,45600	3455
15,46667	3463
15,47733	3469
15,48800	3472
15,49867	3480
15,50933	3484
15,52000	3483
15,53067	3498
15,54133	3501
15,55200	3501
15,56267	3502
15,57333	3509
15,58400	3505
15,59467	3511
15,60533	3523
15,61600	3528
15,62667	3530
15,63733	3536
15,64800	3539
15,65867	3546
15,66933	3548
15,68000	3560
15,69067	3565
15,70133	3575
15,71200	3577
15,72267	3577
15,73333	3572
15,74400	3583
15,75467	3592
15,76533	3594
15,77600	3603
15,78667	3608
15,79733	3616
15,80800	3616
15,81867	3614
15,82933	3617
15,84000	3620
15,85067	3629
15,86133	3628
15,87200	3643
15,88267	3645
15,89333	3644
15,90400	3650
15,91467	3661
15,92533	3665
15,93600	3659
15,94667	3671
15,95733	3678
15,96800	3677
15,97867	3679
15,98933	3682
16,00000	3683
16,01067	3690
16,02133	3696
16,03200	3699
16,04267	3696
16,05333	3707
16,06400	3713
16,07467	3714
16,08533	3726
16,09600	3734
16,10667	3730
16,11733	3736
16,12800	3744
16,13867	3746
16,14933	3743
16,16000	3749
16,17067	3752
16,18133	3754
16,19200	3757
16,20267	3766
16,21333	3766
16,22400	3770
16,23467	3780
16,24533	3781
16,25600	3783
16,26667	3783
16,27733	3788
16,28800	3797
16,29867	3801
16,30933	3806
16,32000	3815
16,33067	3822
16,34133	3820
16,35200	3827
16,36267	3829
16,37333	3831
16,38400	3844
16,39467	3852
16,40533	3857
16,41600	3857
16,42667	3862
16,43733	3865
16,44800	3858
16,45867	3868
16,46933	3880
16,48000	3884
16,49067	3888
16,50133	3892
16,51200	3887
16,52267	3897
16,53333	3902
16,54400	3904
16,55467	3905
16,56533	3918
16,57600	3932
16,58667	3936
16,59733	3940
16,60800	3943
16,61867	3947
16,62933	3943
16,64000	3952
16,65067	3957
16,66133	3963
16,67200	3970
16,68267	3971
16,69333	3971
16,70400	3986
16,71467	3994
16,72533	3991
16,73600	3993
16,74667	3996
16,75733	4001
16,76800	4010
16,77867	4001
16,78933	4007
16,80000	4015
16,81067	4026
16,82133	4031
16,83200	4026
16,84267	4039
16,85333	4040
16,86400	4046
16,87467	4042
16,88533	4048
16,89600	4055
16,90667	4060
16,91733	4069
16,92800	4063
16,93867	4064
16,94933	4075
16,96000	4083
16,97067	4086
16,98133	4084
16,99200	4094
17,00267	4095
17,01333	4103
17,02400	4107
17,03467	4116
17,04533	4119
17,05600	4127
17,06667	4121
17,07733	4127
17,08800	4134
17,09867	4141
17,10933	4139
17,12000	4147
17,13067	4155
17,14133	4159
17,15200	4163
17,16267	4176
17,17333	4173
17,18400	4180
17,19467	4188
17,20533	4196
17,21600	4194
17,22667	4193
17,23733	4197
17,24800	4203
17,25867	4210
17,26933	4216
17,28000	4226
17,29067	4222
17,30133	4229
17,31200	4237
17,32267	4249
17,33333	4254
17,34400	4263
17,35467	4261
17,36533	4264
17,37600	4270
17,38667	4280
17,39733	4293
17,40800	4288
17,41867	4296
17,42933	4291
17,44000	4300
17,45067	4302
17,46133	4301
17,47200	4313
17,48267	4318
17,49333	4333
17,50400	4333
17,51467	4334
17,52533	4342
17,53600	4338
17,54667	4345
17,55733	4348
17,56800	4355
17,57867	4361
17,58933	4362
17,60000	4367
17,61067	4373
17,62133	4378
17,63200	4373
17,64267	4383
17,65333	4390
17,66400	4398
17,67467	4408
17,68533	4407
17,69600	4404
17,70667	4409
17,71733	4411
17,72800	4413
17,73867	4422
17,74933	4421
17,76000	4431
17,77067	4439
17,78133	4439
17,79200	4438
17,80267	4444
17,81333	4453
17,82400	4455
17,83467	4452
17,84533	4455
17,85600	4452
17,86667	4469
17,87733	4467
17,88800	4477
17,89867	4491
17,90933	4489
17,92000	4499
17,93067	4495
17,94133	4497
17,95200	4512
17,96267	4520
17,97333	4525
17,98400	4530
17,99467	4526
18,00533	4537
18,01600	4532
18,02667	4547
18,03733	4560
18,04800	4561
18,05867	4559
18,06933	4572
18,08000	4576
18,09067	4575
18,10133	4593
18,11200	4592
18,12267	4593
18,13333	4597
18,14400	4603
18,15467	4607
18,16533	4609
18,17600	4622
18,18667	4630
18,19733	4641
18,20800	4647
18,21867	4648
18,22933	4653
18,24000	4656
18,25067	4671
18,26133	4675
18,27200	4672
18,28267	4674
18,29333	4684
18,30400	4690
18,31467	4688
18,32533	4695
18,33600	4697
18,34667	4695
18,35733	4703
18,36800	4705
18,37867	4711
18,38933	4715
18,40000	4714
18,41067	4722
18,42133	4719
18,43200	4726
18,44267	4732
18,45333	4732
18,46400	4749
18,47467	4753
18,48533	4754
18,49600	4752
18,50667	4760
18,51733	4771
18,52800	4772
18,53867	4775
18,54933	4783
18,56000	4793
18,57067	4799
18,58133	4807
18,59200	4807
18,60267	4810
18,61333	4815
18,62400	4817
18,63467	4828
18,64533	4836
18,65600	4833
18,66667	4838
18,67733	4848
18,68800	4848
18,69867	4849
18,70933	4850
18,72000	4856
18,73067	4864
18,74133	4863
18,75200	4871
18,76267	4876
18,77333	4878
18,78400	4890
18,79467	4891
18,80533	4886
18,81600	4895
18,82667	4903
18,83733	4910
18,84800	4907
18,85867	4907
18,86933	4921
18,88000	4923
18,89067	4926
18,90133	4929
18,91200	4935
18,92267	4939
18,93333	4941
18,94400	4945
18,95467	4962
18,96533	4960
18,97600	4960
18,98667	4963
18,99733	4970
19,00800	4977
19,01867	4985
19,02933	4992
19,04000	4999
19,05067	4999
19,06133	5010
19,07200	5009
19,08267	5008
19,09333	5021
19,10400	5025
19,11467	5028
19,12533	5033
19,13600	5037
19,14667	5050
19,15733	5058
19,16800	5054
19,17867	5054
19,18933	5063
19,20000	5067
19,21067	5074
19,22133	5073
19,23200	5079
19,24267	5078
19,25333	5081
19,26400	5085
19,27467	5092
19,28533	5099
19,29600	5104
19,30667	5105
19,31733	5109
19,32800	5117
19,33867	5121
19,34933	5122
19,36000	5126
19,37067	5128
19,38133	5131
19,39200	5145
19,40267	5141
19,41333	5147
19,42400	5149
19,43467	5161
19,44533	5164
19,45600	5172
19,46667	5181
19,47733	5179
19,48800	5182
19,49867	5190
19,50933	5191
19,52000	5197
19,53067	5203
19,54133	5204
19,55200	5209
19,56267	5219
19,57333	5227
19,58400	5230
19,59467	5231
19,60533	5238
19,61600	5244
19,62667	5244
19,63733	5243
19,64800	5248
19,65867	5257
19,66933	5266
19,68000	5261
19,69067	5271
19,70133	5271
19,71200	5273
19,72267	5280
19,73333	5281
19,74400	5289
19,75467	5300
19,76533	5302
19,77600	5305
19,78667	5319
19,79733	5320
19,80800	5322
19,81867	5327
19,82933	5329
19,84000	5330
19,85067	5333
19,86133	5342
19,87200	5346
19,88267	5351
19,89333	5355
19,90400	5360
19,91467	5368
19,92533	5368
19,93600	5370
19,94667	5374
19,95733	5380
19,96800	5386
19,97867	5391
19,98933	5390
20,00000	5399
20,01067	5401
20,02133	5417
20,03200	5417
20,04267	5412
20,05333	5417
20,06400	5427
20,07467	5431
20,08533	5438
20,09600	5444
20,10667	5453
20,11733	5451
20,12800	5456
20,13867	5460
20,14933	5466
20,16000	5471
20,17067	5479
20,18133	5483
20,19200	5488
20,20267	5493
20,21333	5494
20,22400	5504
20,23467	5506
20,24533	5512
20,25600	5519
20,26667	5520
20,27733	5526
20,28800	5530
20,29867	5536
20,30933	5539
20,32000	5543
20,33067	5543
20,34133	5555
20,35200	5554
20,36267	5565
20,37333	5564
20,38400	5571
20,39467	5584
20,40533	5583
20,41600	5588
20,42667	5597
20,43733	5605
20,44800	5606
20,45867	5604
20,46933	5600
20,48000	5614
20,49067	5618
20,50133	5626
20,51200	5629
20,52267	5639
20,53333	5647
20,54400	5648
20,55467	5647
20,56533	5650
20,57600	5665
20,58667	5666
20,59733	5665
20,60800	5677
20,61867	5677
20,62933	5687
20,64000	5700
20,65067	5702
20,66133	5702
20,67200	5706
20,68267	5707
20,69333	5717
20,70400	5727
20,71467	5725
20,72533	5723
20,73600	5734
20,74667	5748
20,75733	5747
20,76800	5752
20,77867	5761
20,78933	5768
20,80000	5771
20,81067	5772
20,82133	5779
20,83200	5782
20,84267	5788
20,85333	5792
20,86400	5802
20,87467	5811
20,88533	5821
20,89600	5822
20,90667	5828
20,91733	5825
20,92800	5829
20,93867	5838
20,94933	5840
20,96000	5849
20,97067	5859
20,98133	5859
20,99200	5865
21,00267	5875
21,01333	5887
21,02400	5890
21,03467	5895
21,04533	5899
21,05600	5904
21,06667	5905
21,07733	5903
21,08800	5908
21,09867	5914
21,10933	5918
21,12000	5920
21,13067	5932
21,14133	5931
21,15200	5935
21,16267	5936
21,17333	5944
21,18400	5953
21,19467	5951
21,20533	5959
21,21600	5958
21,22667	5963
21,23733	5964
21,24800	5970
21,25867	5974
21,26933	5988
21,28000	5999
21,29067	5999
21,30133	5999
21,31200	6008
21,32267	6013
21,33333	6019
21,34400	6021
21,35467	6034
21,36533	6040
21,37600	6039
21,38667	6042
21,39733	6048
21,40800	6062
21,41867	6056
21,42933	6060
21,44000	6067
21,45067	6069
21,46133	6081
21,47200	6091
21,48267	6095
21,49333	6103
21,50400	6108
21,51467	6115
21,52533	6112
21,53600	6135
21,54667	6128
21,55733	6132
21,56800	6131
21,57867	6131
21,58933	6132
21,60000	6144
21,61067	6147
21,62133	6153
21,63200	6152
21,64267	6164
21,65333	6166
21,66400	6174
21,67467	6182
21,68533	6193
21,69600	6200
21,70667	6205
21,71733	6211
21,72800	6210
21,73867	6212
21,74933	6217
21,76000	6219
21,77067	6223
21,78133	6233
21,79200	6240
21,80267	6238
21,81333	6242
21,82400	6255
21,83467	6258
21,84533	6262
21,85600	6273
21,86667	6280
21,87733	6288
21,88800	6294
21,89867	6287
21,90933	6296
21,92000	6303
21,93067	6310
21,94133	6315
21,95200	6313
21,96267	6321
21,97333	6326
21,98400	6339
21,99467	6350
22,00533	6343
22,01600	6348
22,02667	6355
22,03733	6365
22,04800	6365
22,05867	6373
22,06933	6381
22,08000	6393
22,09067	6395
22,10133	6393
22,11200	6406
22,12267	6406
22,13333	6412
22,14400	6422
22,15467	6427
22,16533	6438
22,17600	6442
22,18667	6447
22,19733	6447
22,20800	6453
22,21867	6462
22,22933	6471
22,24000	6471
22,25067	6469
22,26133	6476
22,27200	6482
22,28267	6490
22,29333	6501
22,30400	6499
22,31467	6499
22,32533	6494
22,33600	6508
22,34667	6525
22,35733	6522
22,36800	6523
22,37867	6529
22,38933	6536
22,40000	6547
22,41067	6561
22,42133	6553
22,43200	6559
22,44267	6564
22,45333	6575
22,46400	6574
22,47467	6576
22,48533	6588
22,49600	6590
22,50667	6605
22,51733	6614
22,52800	6617
22,53867	6624
22,54933	6628
22,56000	6635
22,57067	6642
22,58133	6642
22,59200	6646
22,60267	6654
22,61333	6660
22,62400	6665
22,63467	6681
22,64533	6696
22,65600	6707
22,66667	6708
22,67733	6704
22,68800	6709
22,69867	6709
22,70933	6719
22,72000	6720
22,73067	6727
22,74133	6722
22,75200	6726
22,76267	6728
22,77333	6737
22,78400	6744
22,79467	6750
22,80533	6755
22,81600	6762
22,82667	6766
22,83733	6759
22,84800	6769
22,85867	6773
22,86933	6781
22,88000	6786
22,89067	6784
22,90133	6788
22,91200	6801
22,92267	6802
22,93333	6809
22,94400	6810
22,95467	6818
22,96533	6827
22,97600	6835
22,98667	6843
22,99733	6840
23,00800	6846
23,01867	6847
23,02933	6854
23,04000	6859
23,05067	6862
23,06133	6868
23,07200	6877
23,08267	6879
23,09333	6883
23,10400	6895
23,11467	6897
23,12533	6899
23,13600	6905
23,14667	6917
23,15733	6926
23,16800	6929
23,17867	6925
23,18933	6935
23,20000	6943
23,21067	6953
23,22133	6957
23,23200	6959
23,24267	6968
23,25333	6975
23,26400	6981
23,27467	6980
23,28533	6985
23,29600	6990
23,30667	7000
23,31733	7009
23,32800	7012
23,33867	7019
23,34933	7023
23,36000	7029
23,37067	7040
23,38133	7051
23,39200	7055
23,40267	7056
23,41333	7058
23,42400	7061
23,43467	7075
23,44533	7077
23,45600	7072
23,46667	7078
23,47733	7093
23,48800	7095
23,49867	7097
23,50933	7099
23,52000	7105
23,53067	7108
23,54133	7116
23,55200	7127
23,56267	7127
23,57333	7141
23,58400	7147
23,59467	7153
23,60533	7156
23,61600	7172
23,62667	7182
23,63733	7184
23,64800	7181
23,65867	7185
23,66933	7188
23,68000	7188
23,69067	7195
23,70133	7201
23,71200	7209
23,72267	7214
23,73333	7223
23,74400	7233
23,75467	7230
23,76533	7236
23,77600	7244
23,78667	7253
23,79733	7256
23,80800	7264
23,81867	7270
23,82933	7269
23,84000	7279
23,85067	7289
23,86133	7287
23,87200	7292
23,88267	7302
23,89333	7312
23,90400	7319
23,91467	7312
23,92533	7316
23,93600	7333
23,94667	7337
23,95733	7348
23,96800	7350
23,97867	7348
23,98933	7351
24,00000	7359
24,01067	7370
24,02133	7379
24,03200	7384
24,04267	7385
24,05333	7394
24,06400	7405
24,07467	7404
24,08533	7409
24,09600	7414
24,10667	7418
24,11733	7419
24,12800	7431
24,13867	7445
24,14933	7454
24,16000	7454
24,17067	7459
24,18133	7466
24,19200	7471
24,20267	7485
24,21333	7490
24,22400	7494
24,23467	7500
24,24533	7497
24,25600	7504
24,26667	7503
24,27733	7506
24,28800	7517
24,29867	7517
24,30933	7532
24,32000	7539
24,33067	7544
24,34133	7556
24,35200	7565
24,36267	7571
24,37333	7579
24,38400	7579
24,39467	7583
24,40533	7589
24,41600	7588
24,42667	7600
24,43733	7600
24,44800	7609
24,45867	7610
24,46933	7621
24,48000	7630
24,49067	7640
24,50133	7649
24,51200	7650
24,52267	7651
24,53333	7658
24,54400	7668
24,55467	7684
24,56533	7685
24,57600	7696
24,58667	7695
24,59733	7704
24,60800	7711
24,61867	7718
24,62933	7720
24,64000	7728
24,65067	7738
24,66133	7745
24,67200	7749
24,68267	7753
24,69333	7760
24,70400	7763
24,71467	7768
24,72533	7777
24,73600	7787
24,74667	7791
24,75733	7791
24,76800	7801
24,77867	7809
24,78933	7817
24,80000	7825
24,81067	7821
24,82133	7829
24,83200	7832
24,84267	7840
24,85333	7849
24,86400	7850
24,87467	7863
24,88533	7867
24,89600	7874
24,90667	7881
24,91733	7886
24,92800	7887
24,93867	7894
24,94933	7902
24,96000	7914
24,97067	7918
24,98133	7920
24,99200	7926
25,00267	7943
25,01333	7946
25,02400	7949
25,03467	7957
25,04533	7961
25,05600	7971
25,06667	7979
25,07733	7988
25,08800	8008
25,09867	8009
25,10933	8008
25,12000	8009
25,13067	8022
25,14133	8025
25,15200	8027
25,16267	8035
25,17333	8038
25,18400	8051
25,19467	8048
25,20533	8056
25,21600	8071
25,22667	8071
25,23733	8083
25,24800	8098
25,25867	8106
25,26933	8110
25,28000	8112
25,29067	8125
25,30133	8134
25,31200	8141
25,32267	8142
25,33333	8154
25,34400	8173
25,35467	8171
25,36533	8178
25,37600	8189
25,38667	8204
25,39733	8212
25,40800	8217
25,41867	8223
25,42933	8227
25,44000	8240
25,45067	8254
25,46133	8260
25,47200	8262
25,48267	8270
25,49333	8276
25,50400	8279
25,51467	8292
25,52533	8313
25,53600	8315
25,54667	8320
25,55733	8328
25,56800	8338
25,57867	8345
25,58933	8346
25,60000	8355
25,61067	8368
25,62133	8382
25,63200	8394
25,64267	8394
25,65333	8398
25,66400	8404
25,67467	8408
25,68533	8415
25,69600	8436
25,70667	8440
25,71733	8444
25,72800	8452
25,73867	8463
25,74933	8466
25,76000	8475
25,77067	8480
25,78133	8496
25,79200	8499
25,80267	8505
25,81333	8521
25,82400	8534
25,83467	8537
25,84533	8538
25,85600	8547
25,86667	8550
25,87733	8555
25,88800	8565
25,89867	8573
25,90933	8587
25,92000	8595
25,93067	8607
25,94133	8602
25,95200	8614
25,96267	8627
25,97333	8632
25,98400	8640
25,99467	8650
26,00533	8657
26,01600	8667
26,02667	8673
26,03733	8676
26,04800	8685
26,05867	8686
26,06933	8697
26,08000	8699
26,09067	8702
26,10133	8718
26,11200	8727
26,12267	8729
26,13333	8729
26,14400	8741
26,15467	8744
26,16533	8751
26,17600	8754
26,18667	8771
26,19733	8780
26,20800	8788
26,21867	8797
26,22933	8801
26,24000	8806
26,25067	8815
26,26133	8824
26,27200	8829
26,28267	8841
26,29333	8848
26,30400	8858
26,31467	8866
26,32533	8870
26,33600	8878
26,34667	8888
26,35733	8897
26,36800	8902
26,37867	8914
26,38933	8923
26,40000	8931
26,41067	8930
26,42133	8940
26,43200	8945
26,44267	8949
26,45333	8951
26,46400	8964
26,47467	8974
26,48533	8977
26,49600	8990
26,50667	8993
26,51733	9008
26,52800	9021
26,53867	9024
26,54933	9028
26,56000	9032
26,57067	9045
26,58133	9063
26,59200	9061
26,60267	9069
26,61333	9083
26,62400	9093
26,63467	9095
26,64533	9109
26,65600	9126
26,66667	9133
26,67733	9142
26,68800	9144
26,69867	9160
26,70933	9160
26,72000	9176
26,73067	9180
26,74133	9199
26,75200	9201
26,76267	9209
26,77333	9220
26,78400	9232
26,79467	9239
26,80533	9249
26,81600	9272
26,82667	9276
26,83733	9288
26,84800	9305
26,85867	9319
26,86933	9332
26,88000	9345
26,89067	9364
26,90133	9377
26,91200	9397
26,92267	9418
26,93333	9425
26,94400	9427
26,95467	9435
26,96533	9443
26,97600	9442
26,98667	9447
26,99733	9458
27,00800	9455
27,01867	9447
27,02933	9448
27,04000	9446
27,05067	9437
27,06133	9425
27,07200	9425
27,08267	9427
27,09333	9420
27,10400	9429
27,11467	9432
27,12533	9437
27,13600	9428
27,14667	9435
27,15733	9433
27,16800	9438
27,17867	9441
27,18933	9446
27,20000	9445
27,21067	9446
27,22133	9466
27,23200	9465
27,24267	9468
27,25333	9473
27,26400	9479
27,27467	9472
27,28533	9475
27,29600	9475
27,30667	9491
27,31733	9493
27,32800	9511
27,33867	9512
27,34933	9525
27,36000	9526
27,37067	9531
27,38133	9536
27,39200	9547
27,40267	9553
27,41333	9562
27,42400	9570
27,43467	9566
27,44533	9576
27,45600	9586
27,46667	9587
27,47733	9586
27,48800	9592
27,49867	9609
27,50933	9615
27,52000	9622
27,53067	9625
27,54133	9629
27,55200	9637
27,56267	9651
27,57333	9656
27,58400	9656
27,59467	9657
27,60533	9663
27,61600	9669
27,62667	9681
27,63733	9683
27,64800	9693
27,65867	9699
27,66933	9707
27,68000	9713
27,69067	9714
27,70133	9724
27,71200	9734
27,72267	9738
27,73333	9745
27,74400	9746
27,75467	9754
27,76533	9759
27,77600	9769
27,78667	9781
27,79733	9791
27,80800	9801
27,81867	9802
27,82933	9810
27,84000	9825
27,85067	9832
27,86133	9841
27,87200	9844
27,88267	9856
27,89333	9865
27,90400	9874
27,91467	9887
27,92533	9889
27,93600	9896
27,94667	9902
27,95733	9913
27,96800	9923
27,97867	9937
27,98933	9940
28,00000	9946
28,01067	9957
28,02133	9965
28,03200	9974
28,04267	9978
28,05333	9984
28,06400	9998
28,07467	10014
28,08533	10015
28,09600	10029
28,10667	10044
28,11733	10060
28,12800	10077
28,13867	10086
28,14933	10097
28,16000	10101
28,17067	10117
28,18133	10135
28,19200	10144
28,20267	10153
28,21333	10167
28,22400	10177
28,23467	10184
28,24533	10186
28,25600	10188
28,26667	10195
28,27733	10213
28,28800	10217
28,29867	10226
28,30933	10231
28,32000	10233
28,33067	10246
28,34133	10265
28,35200	10257
28,36267	10275
28,37333	10280
28,38400	10293
28,39467	10308
28,40533	10323
28,41600	10332
28,42667	10345
28,43733	10362
28,44800	10368
28,45867	10375
28,46933	10381
28,48000	10391
28,49067	10405
28,50133	10408
28,51200	10420
28,52267	10431
28,53333	10441
28,54400	10447
28,55467	10444
28,56533	10459
28,57600	10463
28,58667	10474
28,59733	10480
28,60800	10485
28,61867	10498
28,62933	10505
28,64000	10508
28,65067	10521
28,66133	10524
28,67200	10532
28,68267	10534
28,69333	10532
28,70400	10544
28,71467	10545
28,72533	10557
28,73600	10554
28,74667	10554
28,75733	10561
28,76800	10558
28,77867	10564
28,78933	10566
28,80000	10569
28,81067	10573
28,82133	10582
28,83200	10585
28,84267	10583
28,85333	10585
28,86400	10593
28,87467	10598
28,88533	10603
28,89600	10610
28,90667	10610
28,91733	10615
28,92800	10631
28,93867	10638
28,94933	10640
28,96000	10650
28,97067	10655
28,98133	10663
28,99200	10664
29,00267	10665
29,01333	10676
29,02400	10687
29,03467	10686
29,04533	10687
29,05600	10694
29,06667	10703
29,07733	10699
29,08800	10715
29,09867	10712
29,10933	10720
29,12000	10726
29,13067	10732
29,14133	10738
29,15200	10747
29,16267	10746
29,17333	10750
29,18400	10760
29,19467	10775
29,20533	10790
29,21600	10798
29,22667	10813
29,23733	10821
29,24800	10832
29,25867	10848
29,26933	10858
29,28000	10863
29,29067	10869
29,30133	10880
29,31200	10897
29,32267	10906
29,33333	10913
29,34400	10930
29,35467	10939
29,36533	10940
29,37600	10949
29,38667	10961
29,39733	10979
29,40800	10994
29,41867	11002
29,42933	11005
29,44000	11005
29,45067	11016
29,46133	11031
29,47200	11042
29,48267	11046
29,49333	11047
29,50400	11058
29,51467	11064
29,52533	11074
29,53600	11084
29,54667	11098
29,55733	11105
29,56800	11113
29,57867	11130
29,58933	11142
29,60000	11148
29,61067	11162
29,62133	11178
29,63200	11183
29,64267	11200
29,65333	11208
29,66400	11214
29,67467	11226
29,68533	11233
29,69600	11244
29,70667	11242
29,71733	11246
29,72800	11251
29,73867	11252
29,74933	11251
29,76000	11255
29,77067	11255
29,78133	11254
29,79200	11252
29,80267	11253
29,81333	11259
29,82400	11267
29,83467	11277
29,84533	11284
29,85600	11288
29,86667	11299
29,87733	11302
29,88800	11313
29,89867	11310
29,90933	11309
29,92000	11315
29,93067	11326
29,94133	11336
29,95200	11345
29,96267	11355
29,97333	11364
29,98400	11369
29,99467	11378
30,00533	11395
30,01600	11401
30,02667	11423
30,03733	11431
30,04800	11447
30,05867	11463
30,06933	11474
30,08000	11494
30,09067	11505
30,10133	11517
30,11200	11538
30,12267	11553
30,13333	11568
30,14400	11586
30,15467	11607
30,16533	11612
30,17600	11636
30,18667	11644
30,19733	11647
30,20800	11669
30,21867	11659
30,22933	11658
30,24000	11656
30,25067	11654
30,26133	11656
30,27200	11656
30,28267	11644
30,29333	11640
30,30400	11642
30,31467	11643
30,32533	11641
30,33600	11646
30,34667	11657
30,35733	11648
30,36800	11654
30,37867	11667
30,38933	11676
30,40000	11678
30,41067	11687
30,42133	11688
30,43200	11696
30,44267	11709
30,45333	11720
30,46400	11727
30,47467	11733
30,48533	11748
30,49600	11754
30,50667	11766
30,51733	11774
30,52800	11786
30,53867	11802
30,54933	11809
30,56000	11827
30,57067	11829
30,58133	11847
30,59200	11861
30,60267	11867
30,61333	11869
30,62400	11887
30,63467	11891
30,64533	11905
30,65600	11921
30,66667	11927
30,67733	11941
30,68800	11950
30,69867	11962
30,70933	11967
30,72000	11973
30,73067	11988
30,74133	11994
30,75200	12006
30,76267	12014
30,77333	12024
30,78400	12037
30,79467	12045
30,80533	12056
30,81600	12073
30,82667	12080
30,83733	12091
30,84800	12096
30,85867	12097
30,86933	12114
30,88000	12118
30,89067	12135
30,90133	12144
30,91200	12162
30,92267	12163
30,93333	12178
30,94400	12182
30,95467	12187
30,96533	12203
30,97600	12213
30,98667	12220
30,99733	12233
31,00800	12235
31,01867	12250
31,02933	12258
31,04000	12262
31,05067	12271
31,06133	12285
31,07200	12285
31,08267	12294
31,09333	12298
31,10400	12308
31,11467	12310
31,12533	12325
31,13600	12327
31,14667	12325
31,15733	12337
31,16800	12345
31,17867	12356
31,18933	12364
31,20000	12366
31,21067	12375
31,22133	12385
31,23200	12382
31,24267	12395
31,25333	12399
31,26400	12409
31,27467	12423
31,28533	12426
31,29600	12431
31,30667	12448
31,31733	12449
31,32800	12456
31,33867	12472
31,34933	12479
31,36000	12484
31,37067	12493
31,38133	12492
31,39200	12502
31,40267	12511
31,41333	12512
31,42400	12521
31,43467	12522
31,44533	12528
31,45600	12540
31,46667	12550
31,47733	12552
31,48800	12567
31,49867	12580
31,50933	12578
31,52000	12586
31,53067	12589
31,54133	12606
31,55200	12614
31,56267	12620
31,57333	12632
31,58400	12647
31,59467	12651
31,60533	12674
31,61600	12678
31,62667	12685
31,63733	12690
31,64800	12698
31,65867	12712
31,66933	12714
31,68000	12722
31,69067	12736
31,70133	12745
31,71200	12753
31,72267	12757
31,73333	12757
31,74400	12775
31,75467	12774
31,76533	12773
31,77600	12782
31,78667	12789
31,79733	12791
31,80800	12799
31,81867	12815
31,82933	12813
31,84000	12823
31,85067	12822
31,86133	12823
31,87200	12841
31,88267	12844
31,89333	12843
31,90400	12851
31,91467	12857
31,92533	12866
31,93600	12868
31,94667	12875
31,95733	12887
31,96800	12886
31,97867	12900
31,98933	12907
32,00000	12909
32,01067	12908
32,02133	12922
32,03200	12928
32,04267	12929
32,05333	12938
32,06400	12952
32,07467	12962
32,08533	12968
32,09600	12970
32,10667	12974
32,11733	12983
32,12800	12989
32,13867	12990
32,14933	13002
32,16000	13008
32,17067	13014
32,18133	13024
32,19200	13028
32,20267	13044
32,21333	13041
32,22400	13054
32,23467	13059
32,24533	13060
32,25600	13073
32,26667	13077
32,27733	13090
32,28800	13105
32,29867	13110
32,30933	13106
32,32000	13121
32,33067	13128
32,34133	13146
32,35200	13155
32,36267	13164
32,37333	13184
32,38400	13195
32,39467	13206
32,40533	13216
32,41600	13234
32,42667	13247
32,43733	13258
32,44800	13273
32,45867	13295
32,46933	13317
32,48000	13332
32,49067	13352
32,50133	13371
32,51200	13393
32,52267	13414
32,53333	13432
32,54400	13455
32,55467	13478
32,56533	13498
32,57600	13529
32,58667	13556
32,59733	13585
32,60800	13604
32,61867	13633
32,62933	13671
32,64000	13705
32,65067	13740
32,66133	13764
32,67200	13805
32,68267	13835
32,69333	13871
32,70400	13911
32,71467	13953
32,72533	13993
32,73600	14034
32,74667	14081
32,75733	14122
32,76800	14170
32,77867	14224
32,78933	14267
32,80000	14322
32,81067	14372
32,82133	14430
32,83200	14494
32,84267	14558
32,85333	14613
32,86400	14681
32,87467	14746
32,88533	14814
32,89600	14879
32,90667	14956
32,91733	15048
32,92800	15133
32,93867	15226
32,94933	15326
32,96000	15427
32,97067	15529
32,98133	15636
32,99200	15752
33,00267	15862
33,01333	15969
33,02400	16065
33,03467	16169
33,04533	16274
33,05600	16375
33,06667	16470
33,07733	16556
33,08800	16649
33,09867	16737
33,10933	16824
33,12000	16923
33,13067	17010
33,14133	17100
33,15200	17201
33,16267	17293
33,17333	17390
33,18400	17485
33,19467	17576
33,20533	17673
33,21600	17779
33,22667	17876
33,23733	17985
33,24800	18084
33,25867	18182
33,26933	18284
33,28000	18395
33,29067	18494
33,30133	18598
33,31200	18698
33,32267	18794
33,33333	18886
33,34400	18980
33,35467	19069
33,36533	19160
33,37600	19243
33,38667	19322
33,39733	19407
33,40800	19499
33,41867	19593
33,42933	19681
33,44000	19771
33,45067	19861
33,46133	19963
33,47200	20061
33,48267	20161
33,49333	20259
33,50400	20353
33,51467	20458
33,52533	20548
33,53600	20646
33,54667	20736
33,55733	20838
33,56800	20943
33,57867	21038
33,58933	21140
33,60000	21250
33,61067	21350
33,62133	21454
33,63200	21565
33,64267	21686
33,65333	21805
33,66400	21924
33,67467	22032
33,68533	22150
33,69600	22272
33,70667	22391
33,71733	22502
33,72800	22606
33,73867	22721
33,74933	22834
33,76000	22934
33,77067	23038
33,78133	23151
33,79200	23256
33,80267	23362
33,81333	23463
33,82400	23571
33,83467	23669
33,84533	23785
33,85600	23885
33,86667	24007
33,87733	24129
33,88800	24245
33,89867	24367
33,90933	24495
33,92000	24621
33,93067	24733
33,94133	24839
33,95200	24952
33,96267	25067
33,97333	25180
33,98400	25289
33,99467	25403
34,00533	25493
34,01600	25615
34,02667	25743
34,03733	25865
34,04800	26009
34,05867	26174
34,06933	26367
34,08000	26584
34,09067	26790
34,10133	26967
34,11200	27101
34,12267	27192
34,13333	27257
34,14400	27322
34,15467	27392
34,16533	27469
34,17600	27564
34,18667	27677
34,19733	27805
34,20800	27969
34,21867	28147
34,22933	28347
34,24000	28585
34,25067	28841
34,26133	29110
34,27200	29398
34,28267	29675
34,29333	29922
34,30400	30114
34,31467	30250
34,32533	30331
34,33600	30393
34,34667	30440
34,35733	30486
34,36800	30542
34,37867	30624
34,38933	30734
34,40000	30865
34,41067	31012
34,42133	31211
34,43200	31476
34,44267	31765
34,45333	32065
34,46400	32347
34,47467	32589
34,48533	32771
34,49600	32896
34,50667	32959
34,51733	32995
34,52800	33027
34,53867	33045
34,54933	33069
34,56000	33080
34,57067	33112
34,58133	33156
34,59200	33196
34,60267	33245
34,61333	33307
34,62400	33386
34,63467	33473
34,64533	33569
34,65600	33661
34,66667	33736
34,67733	33805
34,68800	33872
34,69867	33954
34,70933	34026
34,72000	34113
34,73067	34193
34,74133	34281
34,75200	34379
34,76267	34498
34,77333	34628
34,78400	34758
34,79467	34914
34,80533	35086
34,81600	35245
34,82667	35401
34,83733	35541
34,84800	35706
34,85867	35881
34,86933	36055
34,88000	36221
34,89067	36337
34,90133	36430
34,91200	36511
34,92267	36600
34,93333	36695
34,94400	36808
34,95467	36944
34,96533	37093
34,97600	37318
34,98667	37775
34,99733	38887
35,00800	41623
35,01867	47369
35,02933	57510
35,04000	72787
35,05067	92598
35,06133	114303
35,07200	132483
35,08267	141348
35,09333	138632
35,10400	127020
35,11467	111802
35,12533	97187
35,13600	85224
35,14667	76152
35,15733	69586
35,16800	64981
35,17867	61865
35,18933	59736
35,20000	58127
35,21067	56713
35,22133	55382
35,23200	54176
35,24267	53119
35,25333	52239
35,26400	51517
35,27467	50921
35,28533	50421
35,29600	49996
35,30667	49624
35,31733	49290
35,32800	49008
35,33867	48751
35,34933	48568
35,36000	48426
35,37067	48289
35,38133	48070
35,39200	47692
35,40267	47233
35,41333	46830
35,42400	46607
35,43467	46721
35,44533	47415
35,45600	48885
35,46667	51039
35,47733	53285
35,48800	54864
35,49867	55393
35,50933	55042
35,52000	54197
35,53067	53115
35,54133	51909
35,55200	50747
35,56267	49871
35,57333	49575
35,58400	49882
35,59467	50467
35,60533	50826
35,61600	50668
35,62667	50059
35,63733	49262
35,64800	48500
35,65867	47869
35,66933	47345
35,68000	46939
35,69067	46636
35,70133	46410
35,71200	46267
35,72267	46194
35,73333	46192
35,74400	46247
35,75467	46318
35,76533	46362
35,77600	46395
35,78667	46438
35,79733	46545
35,80800	46780
35,81867	47186
35,82933	47765
35,84000	48406
35,85067	48972
35,86133	49337
35,87200	49501
35,88267	49482
35,89333	49328
35,90400	49059
35,91467	48688
35,92533	48231
35,93600	47752
35,94667	47297
35,95733	46913
35,96800	46613
35,97867	46425
35,98933	46323
36,00000	46352
36,01067	46551
36,02133	46917
36,03200	47395
36,04267	47882
36,05333	48286
36,06400	48575
36,07467	48737
36,08533	48740
36,09600	48553
36,10667	48185
36,11733	47731
36,12800	47293
36,13867	46962
36,14933	46780
36,16000	46729
36,17067	46771
36,18133	46847
36,19200	46932
36,20267	46991
36,21333	47039
36,22400	47087
36,23467	47149
36,24533	47225
36,25600	47297
36,26667	47287
36,27733	47242
36,28800	47196
36,29867	47217
36,30933	47374
36,32000	47654
36,33067	47974
36,34133	48178
36,35200	48188
36,36267	48022
36,37333	47749
36,38400	47471
36,39467	47229
36,40533	47029
36,41600	46858
36,42667	46712
36,43733	46582
36,44800	46486
36,45867	46415
36,46933	46367
36,48000	46340
36,49067	46333
36,50133	46341
36,51200	46348
36,52267	46359
36,53333	46381
36,54400	46395
36,55467	46397
36,56533	46410
36,57600	46417
36,58667	46429
36,59733	46445
36,60800	46451
36,61867	46465
36,62933	46481
36,64000	46509
36,65067	46526
36,66133	46565
36,67200	46615
36,68267	46664
36,69333	46714
36,70400	46751
36,71467	46773
36,72533	46778
36,73600	46789
36,74667	46803
36,75733	46844
36,76800	46901
36,77867	46981
36,78933	47049
36,80000	47080
36,81067	47052
36,82133	46987
36,83200	46917
36,84267	46838
36,85333	46781
36,86400	46754
36,87467	46727
36,88533	46703
36,89600	46693
36,90667	46710
36,91733	46721
36,92800	46726
36,93867	46736
36,94933	46759
36,96000	46808
36,97067	46880
36,98133	47006
36,99200	47199
37,00267	47454
37,01333	47704
37,02400	47924
37,03467	48068
37,04533	48101
37,05600	48018
37,06667	47851
37,07733	47649
37,08800	47452
37,09867	47284
37,10933	47165
37,12000	47076
37,13067	47029
37,14133	47002
37,15200	46995
37,16267	47029
37,17333	47078
37,18400	47144
37,19467	47252
37,20533	47366
37,21600	47477
37,22667	47571
37,23733	47594
37,24800	47581
37,25867	47520
37,26933	47454
37,28000	47388
37,29067	47338
37,30133	47305
37,31200	47279
37,32267	47273
37,33333	47281
37,34400	47284
37,35467	47298
37,36533	47320
37,37600	47345
37,38667	47368
37,39733	47391
37,40800	47429
37,41867	47452
37,42933	47472
37,44000	47508
37,45067	47537
37,46133	47574
37,47200	47608
37,48267	47647
37,49333	47681
37,50400	47713
37,51467	47747
37,52533	47777
37,53600	47810
37,54667	47837
37,55733	47865
37,56800	47890
37,57867	47917
37,58933	47943
37,60000	47967
37,61067	47985
37,62133	48017
37,63200	48048
37,64267	48083
37,65333	48115
37,66400	48150
37,67467	48175
37,68533	48209
37,69600	48242
37,70667	48272
37,71733	48307
37,72800	48354
37,73867	48409
37,74933	48458
37,76000	48518
37,77067	48577
37,78133	48629
37,79200	48685
37,80267	48712
37,81333	48730
37,82400	48749
37,83467	48745
37,84533	48727
37,85600	48720
37,86667	48719
37,87733	48709
37,88800	48708
37,89867	48713
37,90933	48715
37,92000	48731
37,93067	48735
37,94133	48744
37,95200	48748
37,96267	48751
37,97333	48759
37,98400	48758
37,99467	48761
38,00533	48758
38,01600	48754
38,02667	48749
38,03733	48737
38,04800	48726
38,05867	48718
38,06933	48714
38,08000	48694
38,09067	48682
38,10133	48666
38,11200	48645
38,12267	48633
38,13333	48610
38,14400	48586
38,15467	48572
38,16533	48540
38,17600	48527
38,18667	48513
38,19733	48494
38,20800	48470
38,21867	48442
38,22933	48433
38,24000	48410
38,25067	48390
38,26133	48365
38,27200	48334
38,28267	48294
38,29333	48260
38,30400	48217
38,31467	48182
38,32533	48137
38,33600	48104
38,34667	48053
38,35733	48023
38,36800	47975
38,37867	47940
38,38933	47902
38,40000	47871
38,41067	47841
38,42133	47811
38,43200	47783
38,44267	47751
38,45333	47720
38,46400	47692
38,47467	47662
38,48533	47642
38,49600	47618
38,50667	47588
38,51733	47558
38,52800	47535
38,53867	47505
38,54933	47480
38,56000	47464
38,57067	47446
38,58133	47426
38,59200	47413
38,60267	47394
38,61333	47387
38,62400	47372
38,63467	47358
38,64533	47355
38,65600	47360
38,66667	47358
38,67733	47356
38,68800	47363
38,69867	47367
38,70933	47378
38,72000	47387
38,73067	47405
38,74133	47449
38,75200	47535
38,76267	47690
38,77333	47948
38,78400	48374
38,79467	49046
38,80533	50048
38,81600	51496
38,82667	53508
38,83733	56151
38,84800	59389
38,85867	63106
38,86933	67061
38,88000	70851
38,89067	74020
38,90133	76136
38,91200	76887
38,92267	76190
38,93333	74156
38,94400	71100
38,95467	67462
38,96533	63681
38,97600	60133
38,98667	57044
38,99733	54548
39,00800	52639
39,01867	51248
39,02933	50264
39,04000	49579
39,05067	49109
39,06133	48777
39,07200	48527
39,08267	48343
39,09333	48191
39,10400	48059
39,11467	47927
39,12533	47801
39,13600	47689
39,14667	47564
39,15733	47452
39,16800	47319
39,17867	47183
39,18933	47033
39,20000	46894
39,21067	46738
39,22133	46575
39,23200	46395
39,24267	46221
39,25333	46032
39,26400	45833
39,27467	45624
39,28533	45413
39,29600	45189
39,30667	44947
39,31733	44709
39,32800	44468
39,33867	44207
39,34933	43946
39,36000	43682
39,37067	43421
39,38133	43141
39,39200	42859
39,40267	42597
39,41333	42333
39,42400	42061
39,43467	41786
39,44533	41533
39,45600	41281
39,46667	41033
39,47733	40782
39,48800	40528
39,49867	40272
39,50933	39998
39,52000	39695
39,53067	39377
39,54133	39039
39,55200	38670
39,56267	38278
39,57333	37862
39,58400	37457
39,59467	37063
39,60533	36669
39,61600	36243
39,62667	35758
39,63733	35178
39,64800	34495
39,65867	33695
39,66933	32779
39,68000	31756
39,69067	30641
39,70133	29460
39,71200	28244
39,72267	26999
39,73333	25747
39,74400	24468
39,75467	23189
39,76533	21906
39,77600	20633
39,78667	19399
39,79733	18212
39,80800	17091
39,81867	16031
39,82933	15034
39,84000	14103
39,85067	13237
39,86133	12427
39,87200	11674
39,88267	10989
39,89333	10353
39,90400	9773
39,91467	9234
39,92533	8740
39,93600	8278
39,94667	7863
39,95733	7478
39,96800	7126
39,97867	6796
39,98933	6496
40,00000	6205
40,01067	5932
40,02133	5688
40,03200	5472
40,04267	5247
40,05333	5040
40,06400	4849
40,07467	4664
40,08533	4497
40,09600	4331
40,10667	4173
40,11733	4023
40,12800	3882
40,13867	3760
40,14933	3639
40,16000	3524
40,17067	3403
40,18133	3294
40,19200	3203
40,20267	3118
40,21333	3027
40,22400	2933
40,23467	2845
40,24533	2758
40,25600	2682
40,26667	2597
40,27733	2535
40,28800	2471
40,29867	2403
40,30933	2338
40,32000	2275
40,33067	2215
40,34133	2154
40,35200	2106
40,36267	2054
40,37333	2006
40,38400	1957
40,39467	1906
40,40533	1866
40,41600	1820
40,42667	1768
40,43733	1731
40,44800	1698
40,45867	1657
40,46933	1615
40,48000	1585
40,49067	1557
40,50133	1521
40,51200	1487
40,52267	1457
40,53333	1427
40,54400	1394
40,55467	1363
40,56533	1335
40,57600	1301
40,58667	1279
40,59733	1257
40,60800	1229
40,61867	1200
40,62933	1171
40,64000	1137
40,65067	1116
40,66133	1092
40,67200	1059
40,68267	1026
40,69333	1010
40,70400	987
40,71467	960
40,72533	934
40,73600	892
40,74667	870
40,75733	851
40,76800	818
40,77867	797
40,78933	775
40,80000	740
40,81067	714
40,82133	694
40,83200	664
40,84267	643
40,85333	624
40,86400	600
40,87467	575
40,88533	554
40,89600	534
40,90667	514
40,91733	490
40,92800	472
40,93867	446
40,94933	422
40,96000	412
40,97067	393
40,98133	373
40,99200	361
41,00267	346
41,01333	328
41,02400	301
41,03467	290
41,04533	279
41,05600	260
41,06667	249
41,07733	231
41,08800	214
41,09867	198
41,10933	180
41,12000	174
41,13067	164
41,14133	150
41,15200	140
41,16267	129
41,17333	112
41,18400	105
41,19467	90
41,20533	77
41,21600	66
41,22667	57
41,23733	48
41,24800	32
41,25867	30
41,26933	24
41,28000	14
41,29067	7
41,30133	1
41,31200	-11
41,32267	-31
41,33333	-43
41,34400	-41
41,35467	-54
41,36533	-59
41,37600	-58
41,38667	-65
41,39733	-63
41,40800	-77
41,41867	-74
41,42933	-76
41,44000	-80
41,45067	-83
41,46133	-83
41,47200	-86
41,48267	-91
41,49333	-88
41,50400	-89
41,51467	-88
41,52533	-92
41,53600	-88
41,54667	-85
41,55733	-87
41,56800	-88
41,57867	-74
41,58933	-66
41,60000	-63
41,61067	-62
41,62133	-53
41,63200	-47
41,64267	-46
41,65333	-42
41,66400	-42
41,67467	-35
41,68533	-34
41,69600	-29
41,70667	-22
41,71733	-14
41,72800	-19
41,73867	-15
41,74933	-12
41,76000	-9
41,77067	1
41,78133	8
41,79200	11
41,80267	8
41,81333	18
41,82400	23
41,83467	32
41,84533	32
41,85600	42
41,86667	51
41,87733	49
41,88800	51
41,89867	59
41,90933	62
41,92000	59
41,93067	70
41,94133	67
41,95200	77
41,96267	84
41,97333	85
41,98400	84
41,99467	99
42,00533	101
42,01600	108
42,02667	111
42,03733	99
42,04800	104
42,05867	111
42,06933	121
42,08000	122
42,09067	129
42,10133	131
42,11200	136
42,12267	135
42,13333	135
42,14400	139
42,15467	136
42,16533	137
42,17600	142
42,18667	150
42,19733	152
42,20800	154
42,21867	151
42,22933	149
42,24000	150
42,25067	154
42,26133	156
42,27200	157
42,28267	155
42,29333	156
42,30400	154
42,31467	154
42,32533	153
42,33600	160
42,34667	155
42,35733	159
42,36800	162
42,37867	171
42,38933	159
42,40000	162
42,41067	158
42,42133	161
42,43200	159
42,44267	155
42,45333	160
42,46400	162
42,47467	163
42,48533	161
42,49600	159
42,50667	163
42,51733	169
42,52800	164
42,53867	161
42,54933	161
42,56000	160
42,57067	159
42,58133	160
42,59200	160
42,60267	160
42,61333	168
42,62400	159
42,63467	157
42,64533	157
42,65600	158
42,66667	146
42,67733	158
42,68800	161
42,69867	152
42,70933	149
42,72000	149
42,73067	142
42,74133	149
42,75200	144
42,76267	146
42,77333	142
42,78400	145
42,79467	138
42,80533	142
42,81600	143
42,82667	138
42,83733	143
42,84800	143
42,85867	147
42,86933	137
42,88000	136
42,89067	135
42,90133	137
42,91200	134
42,92267	146
42,93333	146
42,94400	140
42,95467	130
42,96533	131
42,97600	133
42,98667	135
42,99733	128
43,00800	121
43,01867	129
43,02933	126
43,04000	121
43,05067	124
43,06133	127
43,07200	133
43,08267	131
43,09333	125
43,10400	120
43,11467	125
43,12533	126
43,13600	133
43,14667	134
43,15733	126
43,16800	118
43,17867	114
43,18933	122
43,20000	116
43,21067	118
43,22133	123
43,23200	120
43,24267	115
43,25333	117
43,26400	132
43,27467	126
43,28533	123
43,29600	122
43,30667	122
43,31733	125
43,32800	126
43,33867	129
43,34933	126
43,36000	127
43,37067	117
43,38133	115
43,39200	115
43,40267	116
43,41333	115
43,42400	118
43,43467	121
43,44533	114
43,45600	111
43,46667	115
43,47733	120
43,48800	123
43,49867	119
43,50933	118
43,52000	117
43,53067	125
43,54133	124
43,55200	130
43,56267	125
43,57333	117
43,58400	116
43,59467	119
43,60533	112
43,61600	108
43,62667	114
43,63733	113
43,64800	119
43,65867	116
43,66933	113
43,68000	113
43,69067	112
43,70133	113
43,71200	122
43,72267	124
43,73333	113
43,74400	107
43,75467	112
43,76533	120
43,77600	119
43,78667	119
43,79733	113
43,80800	108
43,81867	107
43,82933	109
43,84000	105
43,85067	112
43,86133	111
43,87200	108
43,88267	111
43,89333	107
43,90400	110
43,91467	107
43,92533	107
43,93600	100
43,94667	112
43,95733	110
43,96800	100
43,97867	104
43,98933	107
44,00000	103
44,01067	101
44,02133	96
44,03200	101
44,04267	93
44,05333	94
44,06400	95
44,07467	100
44,08533	97
44,09600	95
44,10667	96
44,11733	93
44,12800	92
44,13867	89
44,14933	96
44,16000	93
44,17067	90
44,18133	87
44,19200	93
44,20267	95
44,21333	92
44,22400	92
44,23467	88
44,24533	85
44,25600	86
44,26667	89
44,27733	91
44,28800	84
44,29867	91
44,30933	79
44,32000	82
44,33067	92
44,34133	83
44,35200	80
44,36267	88
44,37333	83
44,38400	81
44,39467	80
44,40533	82
44,41600	85
44,42667	81
44,43733	77
44,44800	77
44,45867	80
44,46933	79
44,48000	79
44,49067	78
44,50133	79
44,51200	77
44,52267	79
44,53333	75
44,54400	74
44,55467	76
44,56533	76
44,57600	73
44,58667	81
44,59733	82
44,60800	75
44,61867	76
44,62933	77
44,64000	79
44,65067	70
44,66133	77
44,67200	77
44,68267	74
44,69333	72
44,70400	59
44,71467	58
44,72533	67
44,73600	70
44,74667	62
44,75733	64
44,76800	65
44,77867	67
44,78933	70
44,80000	68
44,81067	67
44,82133	66
44,83200	63
44,84267	60
44,85333	62
44,86400	63
44,87467	72
44,88533	69
44,89600	65
44,90667	67
44,91733	64
44,92800	71
44,93867	67
44,94933	72
44,96000	77
44,97067	69
44,98133	70
44,99200	73
45,00267	77
45,01333	73
45,02400	69
45,03467	79
45,04533	70
45,05600	69
45,06667	70
45,07733	80
45,08800	75
45,09867	69
45,10933	68
45,12000	67
45,13067	70
45,14133	70
45,15200	70
45,16267	71
45,17333	72
45,18400	70
45,19467	73
45,20533	71
45,21600	72
45,22667	63
45,23733	64
45,24800	72
45,25867	75
45,26933	79
45,28000	71
45,29067	71
45,30133	77
45,31200	79
45,32267	90
45,33333	75
45,34400	75
45,35467	72
45,36533	68
45,37600	71
45,38667	66
45,39733	70
45,40800	72
45,41867	69
45,42933	70
45,44000	79
45,45067	73
45,46133	69
45,47200	69
45,48267	66
45,49333	72
45,50400	71
45,51467	67
45,52533	66
45,53600	63
45,54667	64
45,55733	65
45,56800	67
45,57867	68
45,58933	75
45,60000	74
45,61067	68
45,62133	70
45,63200	70
45,64267	72
45,65333	71
45,66400	81
45,67467	76
45,68533	75
45,69600	67
45,70667	70
45,71733	68
45,72800	65
45,73867	68
45,74933	75
45,76000	75
45,77067	77
45,78133	69
45,79200	69
45,80267	72
45,81333	74
45,82400	76
45,83467	74
45,84533	71
45,85600	68
45,86667	63
45,87733	63
45,88800	63
45,89867	69
45,90933	69
45,92000	70
45,93067	75
45,94133	70
45,95200	70
45,96267	61
45,97333	64
45,98400	55
45,99467	57
46,00533	64
46,01600	63
46,02667	59
46,03733	64
46,04800	63
46,05867	66
46,06933	55
46,08000	60
46,09067	64
46,10133	62
46,11200	63
46,12267	64
46,13333	65
46,14400	61
46,15467	51
46,16533	55
46,17600	53
46,18667	58
46,19733	63
46,20800	63
46,21867	58
46,22933	61
46,24000	58
46,25067	51
46,26133	52
46,27200	53
46,28267	56
46,29333	54
46,30400	47
46,31467	45
46,32533	51
46,33600	55
46,34667	57
46,35733	44
46,36800	46
46,37867	52
46,38933	50
46,40000	53
46,41067	48
46,42133	52
46,43200	56
46,44267	47
46,45333	48
46,46400	51
46,47467	48
46,48533	42
46,49600	45
46,50667	39
46,51733	42
46,52800	35
46,53867	38
46,54933	43
46,56000	47
46,57067	44
46,58133	42
46,59200	38
46,60267	38
46,61333	36
46,62400	37
46,63467	37
46,64533	44
46,65600	48
46,66667	38
46,67733	39
46,68800	32
46,69867	33
46,70933	27
46,72000	33
46,73067	39
46,74133	39
46,75200	31
46,76267	32
46,77333	29
46,78400	27
46,79467	31
46,80533	29
46,81600	19
46,82667	23
46,83733	24
46,84800	28
46,85867	33
46,86933	32
46,88000	24
46,89067	27
46,90133	23
46,91200	24
46,92267	25
46,93333	18
46,94400	24
46,95467	27
46,96533	18
46,97600	24
46,98667	19
46,99733	22
47,00800	14
47,01867	11
47,02933	17
47,04000	13
47,05067	20
47,06133	6
47,07200	15
47,08267	19
47,09333	22
47,10400	20
47,11467	13
47,12533	14
47,13600	16
47,14667	9
47,15733	7
47,16800	11
47,17867	18
47,18933	19
47,20000	18
47,21067	9
47,22133	12
47,23200	13
47,24267	21
47,25333	20
47,26400	19
47,27467	19
47,28533	17
47,29600	16
47,30667	16
47,31733	23
47,32800	19
47,33867	21
47,34933	19
47,36000	15
47,37067	8
47,38133	12
47,39200	6
47,40267	16
47,41333	18
47,42400	17
47,43467	15
47,44533	17
47,45600	7
47,46667	10
47,47733	8
47,48800	8
47,49867	6
47,50933	5
47,52000	5
47,53067	5
47,54133	6
47,55200	8
47,56267	-2
47,57333	9
47,58400	3
47,59467	8
47,60533	11
47,61600	13
47,62667	14
47,63733	10
47,64800	14
47,65867	18
47,66933	23
47,68000	17
47,69067	6
47,70133	13
47,71200	14
47,72267	10
47,73333	11
47,74400	14
47,75467	15
47,76533	9
47,77600	5
47,78667	1
47,79733	6
47,80800	13
47,81867	0
47,82933	-1
47,84000	6
47,85067	2
47,86133	-1
47,87200	-1
47,88267	-12
47,89333	-4
47,90400	-13
47,91467	-14
47,92533	-7
47,93600	-14
47,94667	-9
47,95733	-13
47,96800	-15
47,97867	-19
47,98933	-16
48,00000	-9
48,01067	-16
48,02133	-18
48,03200	-19
48,04267	-21
48,05333	-16
48,06400	-30
48,07467	-31
48,08533	-23
48,09600	-23
48,10667	-16
48,11733	-16
48,12800	-18
48,13867	-20
48,14933	-21
48,16000	-23
48,17067	-28
48,18133	-19
48,19200	-17
48,20267	-19
48,21333	-15
48,22400	-20
48,23467	-12
48,24533	-14
48,25600	-23
48,26667	-22
48,27733	-18
48,28800	-23
48,29867	-15
48,30933	-13
48,32000	-14
48,33067	-12
48,34133	-19
48,35200	-21
48,36267	-21
48,37333	-22
48,38400	-22
48,39467	-20
48,40533	-23
48,41600	-19
48,42667	-27
48,43733	-29
48,44800	-33
48,45867	-25
48,46933	-31
48,48000	-33
48,49067	-35
48,50133	-35
48,51200	-30
48,52267	-35
48,53333	-26
48,54400	-30
48,55467	-25
48,56533	-28
48,57600	-34
48,58667	-36
48,59733	-34
48,60800	-36
48,61867	-29
48,62933	-23
48,64000	-32
48,65067	-23
48,66133	-23
48,67200	-37
48,68267	-31
48,69333	-37
48,70400	-40
48,71467	-45
48,72533	-39
48,73600	-39
48,74667	-36
48,75733	-35
48,76800	-37
48,77867	-34
48,78933	-37
48,80000	-39
48,81067	-43
48,82133	-47
48,83200	-39
48,84267	-43
48,85333	-46
48,86400	-45
48,87467	-41
48,88533	-35
48,89600	-43
48,90667	-47
48,91733	-42
48,92800	-40
48,93867	-41
48,94933	-39
48,96000	-41
48,97067	-38
48,98133	-38
48,99200	-46
49,00267	-40
49,01333	-36
49,02400	-43
49,03467	-47
49,04533	-44
49,05600	-43
49,06667	-46
49,07733	-40
49,08800	-41
49,09867	-42
49,10933	-36
49,12000	-32
49,13067	-38
49,14133	-46
49,15200	-38
49,16267	-41
49,17333	-42
49,18400	-40
49,19467	-46
49,20533	-36
49,21600	-38
49,22667	-29
49,23733	-41
49,24800	-39
49,25867	-35
49,26933	-40
49,28000	-42
49,29067	-45
49,30133	-36
49,31200	-43
49,32267	-39
49,33333	-41
49,34400	-40
49,35467	-42
49,36533	-38
49,37600	-40
49,38667	-38
49,39733	-37
49,40800	-39
49,41867	-41
49,42933	-49
49,44000	-53
49,45067	-46
49,46133	-41
49,47200	-37
49,48267	-44
49,49333	-35
49,50400	-32
49,51467	-36
49,52533	-30
49,53600	-27
49,54667	-27
49,55733	-32
49,56800	-43
49,57867	-48
49,58933	-52
49,60000	-46
49,61067	-43
49,62133	-39
49,63200	-42
49,64267	-40
49,65333	-39
49,66400	-42
49,67467	-45
49,68533	-51
49,69600	-53
49,70667	-54
49,71733	-46
49,72800	-45
49,73867	-49
49,74933	-36
49,76000	-40
49,77067	-45
49,78133	-45
49,79200	-48
49,80267	-49
49,81333	-45
49,82400	-44
49,83467	-48
49,84533	-43
49,85600	-53
49,86667	-58
49,87733	-51
49,88800	-50
49,89867	-49
49,90933	-52
49,92000	-58
49,93067	-59
49,94133	-56
49,95200	-58
49,96267	-56
49,97333	-51
49,98400	-51
49,99467	-60
50,00533	-53
50,01600	-49


