[Header]
Application Name	LabSolutions
Version	5.73
Data File Name	C:\Users\Public\DADOS\Ricardo borges\RMBorges\26.02.25\CATECHIN HIDRATE.lcd
Output Date	26/02/2025
Output Time	16:07:42

[File Information]
Type	Data File
Generated	26/02/2025 15:17:13
Generated by	System Administrator
Modified	26/02/2025 16:07:41
Modified by	System Administrator

[Sample Information]
Operator Name	System Administrator
Acquired	26/02/2025 15:17:38
Sample Type	0:Unknown
Level	0
Sample Name	CATECHIN HIDRATE
Sample ID	CATECHIN HIDRATE
ISTD Amount1	1
ISTD Amount2	1
ISTD Amount3	1
ISTD Amount4	1
ISTD Amount5	1
ISTD Amount6	1
ISTD Amount7	1
ISTD Amount8	1
ISTD Amount9	1
ISTD Amount10	1
ISTD Amount11	1
ISTD Amount12	1
ISTD Amount13	1
ISTD Amount14	1
ISTD Amount15	1
ISTD Amount16	1
ISTD Amount17	1
ISTD Amount18	1
ISTD Amount19	1
ISTD Amount20	1
ISTD Amount21	1
ISTD Amount22	1
ISTD Amount23	1
ISTD Amount24	1
ISTD Amount25	1
ISTD Amount26	1
ISTD Amount27	1
ISTD Amount28	1
ISTD Amount29	1
ISTD Amount30	1
ISTD Amount31	1
ISTD Amount32	1
Sample Amount	1
Dilution Factor	1
Vial#	4
Injection Volume	10

[Original Files]
Data File	C:\Users\Public\DADOS\Ricardo borges\RMBorges\26.02.25\CATECHIN HIDRATE.lcd
Method File	C:\Users\Public\MÉTODOS\MÉTODOS HPLC AUTOMÁTICO\RICARDO BORGES\RMBorges\sciffee\experimental 1 - pool.lcm
Batch File	C:\Users\Public\DADOS\Ricardo borges\RMBorges\26.02.25\BATCH_RM_MIX POOL_26.02.2025.lcb
Report Format File	C:\LabSolutions\System\Default.lsr

[File Description]


[Configuration]
Instrument Name	HPLC analítico (automático)
Instrument #	1
Line #	1
# of Detectors	1
Detector ID	PDA
Detector Name	PDA
# of Channels	1

[Peak Table(PDA-Ch1)]
# of Peaks	15
Peak#	R.Time	I.Time	F.Time	Area	Height	A/H	Conc.	Mark	ID#	Name	k'	Plate #	Plate Ht.	Tailing	Resolution	Sep.Factor	Area Ratio	Height Ratio	Conc. %	Norm Conc.
1	1,667	1,493	1,824	106094	17826	5,952	0,000	   			0,000	1678	89,376	1,005	0,000	0,000	0	0	0,000	0,000
2	8,945	8,619	9,355	688382	53918	12,767	0,000	   			4,366	10624	14,118	1,092	28,547	0,000	0	0	0,000	0,000
3	10,130	9,941	10,315	1854	167	11,080	0,000	   			5,077	17051	8,797	0,969	3,606	1,163	0	0	0,000	0,000
4	18,335	17,952	18,475	1974	165	11,947	0,000	   			9,999	58247	2,575	0,717	26,717	1,969	0	0	0,000	0,000
5	29,685	29,184	29,867	2542	101	25,065	0,000	   			16,807	48281	3,107	0,678	26,887	1,681	0	0	0,000	0,000
6	35,072	34,699	35,413	798812	108976	7,330	0,000	   			20,039	707364	0,212	0,000	15,233	1,192	0	0	0,000	0,000
7	35,486	35,413	35,563	104426	15629	6,682	0,000	 V 			20,287	286793	0,523	0,000	1,916	1,012	0	0	0,000	0,000
8	35,594	35,563	35,723	66115	10084	6,556	0,000	 V 			20,352	108729	1,380	0,000	0,312	1,003	0	0	0,000	0,000
9	35,853	35,723	35,979	71250	6209	11,476	0,000	 V 			20,507	126521	1,186	0,000	0,620	1,008	0	0	0,000	0,000
10	36,032	35,979	36,085	17535	2899	6,049	0,000	 V 			20,615	2729	54,965	0,000	0,113	1,005	0	0	0,000	0,000
11	36,334	36,085	36,480	48619	3152	15,427	0,000	 V 			20,796	49556	3,027	0,000	0,177	1,009	0	0	0,000	0,000
12	36,783	36,683	36,896	1870	413	4,524	0,000	   			21,065	1161840	0,129	0,914	1,137	1,013	0	0	0,000	0,000
13	37,029	36,928	37,152	6504	1255	5,182	0,000	   			21,213	877151	0,171	1,069	1,673	1,007	0	0	0,000	0,000
14	37,222	37,152	37,344	2077	436	4,768	0,000	   			21,328	1066557	0,141	1,273	1,273	1,005	0	0	0,000	0,000
15	38,903	38,645	39,968	1097901	37100	29,593	0,000	   			22,337	329809	0,455	2,918	8,101	1,047	0	0	0,000	0,000

[Compound Results(PDA)]
# of IDs	0

[PDA Multi Chromatogram(Ch1)]
# of Points	      4689
Interval(msec)	640
Start Time(min)	0
End Time(min)	50,0053
Intensity Units	mAU
Intensity Multiplier	1
Type	MultiChrom
Wavelength(nm)	254
Bandwidth(nm)	4
R.Time (min)	Intensity
0,00000	0
0,01067	0
0,02133	0
0,03200	0
0,04267	0
0,05333	0
0,06400	0
0,07467	0
0,08533	0
0,09600	0
0,10667	-7
0,11733	-14
0,12800	-21
0,13867	-20
0,14933	-9
0,16000	-12
0,17067	-8
0,18133	-10
0,19200	-5
0,20267	-7
0,21333	-9
0,22400	-8
0,23467	-16
0,24533	-11
0,25600	-8
0,26667	-9
0,27733	-17
0,28800	-12
0,29867	-17
0,30933	-17
0,32000	-20
0,33067	-14
0,34133	-19
0,35200	-20
0,36267	-16
0,37333	-16
0,38400	-15
0,39467	-19
0,40533	-19
0,41600	-21
0,42667	-28
0,43733	-24
0,44800	-16
0,45867	-20
0,46933	-22
0,48000	-30
0,49067	-24
0,50133	-26
0,51200	-21
0,52267	-27
0,53333	-26
0,54400	-16
0,55467	-33
0,56533	-27
0,57600	-28
0,58667	-24
0,59733	-20
0,60800	-22
0,61867	-23
0,62933	-27
0,64000	-29
0,65067	-23
0,66133	-22
0,67200	-19
0,68267	-19
0,69333	-25
0,70400	-25
0,71467	-29
0,72533	-15
0,73600	-28
0,74667	-28
0,75733	-23
0,76800	-32
0,77867	-28
0,78933	-24
0,80000	-25
0,81067	-26
0,82133	-22
0,83200	-29
0,84267	-27
0,85333	-26
0,86400	-29
0,87467	-21
0,88533	-25
0,89600	-17
0,90667	-17
0,91733	-21
0,92800	-24
0,93867	-19
0,94933	-19
0,96000	-22
0,97067	-19
0,98133	-19
0,99200	-26
1,00267	-30
1,01333	-29
1,02400	-23
1,03467	-18
1,04533	-15
1,05600	-20
1,06667	-21
1,07733	-20
1,08800	-21
1,09867	-25
1,10933	-26
1,12000	-20
1,13067	-26
1,14133	-21
1,15200	-20
1,16267	-14
1,17333	-19
1,18400	-18
1,19467	-28
1,20533	-36
1,21600	-28
1,22667	-25
1,23733	-22
1,24800	-24
1,25867	-27
1,26933	-26
1,28000	-23
1,29067	-20
1,30133	-16
1,31200	-17
1,32267	-22
1,33333	-22
1,34400	-30
1,35467	-27
1,36533	-34
1,37600	-35
1,38667	-29
1,39733	-31
1,40800	-32
1,41867	-30
1,42933	-32
1,44000	-25
1,45067	-25
1,46133	-28
1,47200	-29
1,48267	-26
1,49333	-30
1,50400	-27
1,51467	-25
1,52533	-15
1,53600	-9
1,54667	16
1,55733	46
1,56800	85
1,57867	105
1,58933	106
1,60000	103
1,61067	91
1,62133	114
1,63200	1288
1,64267	6247
1,65333	11791
1,66400	13834
1,67467	13265
1,68533	11616
1,69600	9683
1,70667	7642
1,71733	5416
1,72800	3090
1,73867	903
1,74933	-954
1,76000	-2446
1,77067	-3603
1,78133	-4493
1,79200	-5291
1,80267	-6134
1,81333	-6966
1,82400	-7574
1,83467	-7801
1,84533	-7579
1,85600	-6953
1,86667	-6007
1,87733	-4906
1,88800	-3798
1,89867	-2789
1,90933	-1961
1,92000	-1340
1,93067	-888
1,94133	-580
1,95200	-384
1,96267	-262
1,97333	-174
1,98400	-123
1,99467	-87
2,00533	-65
2,01600	-54
2,02667	-44
2,03733	-36
2,04800	-36
2,05867	-31
2,06933	-33
2,08000	-25
2,09067	-33
2,10133	-30
2,11200	-22
2,12267	-26
2,13333	-32
2,14400	-32
2,15467	-27
2,16533	-24
2,17600	-29
2,18667	-25
2,19733	-32
2,20800	-32
2,21867	-28
2,22933	-26
2,24000	-20
2,25067	-17
2,26133	-17
2,27200	-18
2,28267	-15
2,29333	-11
2,30400	-19
2,31467	-13
2,32533	-21
2,33600	-21
2,34667	-20
2,35733	-17
2,36800	-20
2,37867	-21
2,38933	-15
2,40000	-11
2,41067	-16
2,42133	-11
2,43200	-21
2,44267	-19
2,45333	-15
2,46400	-19
2,47467	-18
2,48533	-15
2,49600	-11
2,50667	-15
2,51733	-18
2,52800	-14
2,53867	-10
2,54933	-15
2,56000	-21
2,57067	-21
2,58133	-22
2,59200	-28
2,60267	-28
2,61333	-36
2,62400	-37
2,63467	-48
2,64533	-73
2,65600	-116
2,66667	-182
2,67733	-276
2,68800	-354
2,69867	-439
2,70933	-504
2,72000	-537
2,73067	-554
2,74133	-550
2,75200	-519
2,76267	-475
2,77333	-417
2,78400	-349
2,79467	-294
2,80533	-232
2,81600	-182
2,82667	-144
2,83733	-107
2,84800	-82
2,85867	-57
2,86933	-49
2,88000	-44
2,89067	-40
2,90133	-35
2,91200	-31
2,92267	-27
2,93333	-23
2,94400	-22
2,95467	-25
2,96533	-26
2,97600	-24
2,98667	-35
2,99733	-29
3,00800	-34
3,01867	-30
3,02933	-33
3,04000	-19
3,05067	-17
3,06133	-11
3,07200	-16
3,08267	-17
3,09333	-1
3,10400	1
3,11467	-2
3,12533	-10
3,13600	-1
3,14667	-5
3,15733	-4
3,16800	-11
3,17867	-13
3,18933	-16
3,20000	-14
3,21067	-21
3,22133	-19
3,23200	-22
3,24267	-19
3,25333	-26
3,26400	-26
3,27467	-25
3,28533	-32
3,29600	-31
3,30667	-29
3,31733	-28
3,32800	-27
3,33867	-24
3,34933	-20
3,36000	-22
3,37067	-29
3,38133	-24
3,39200	-20
3,40267	-19
3,41333	-18
3,42400	-16
3,43467	-12
3,44533	-9
3,45600	10
3,46667	22
3,47733	40
3,48800	52
3,49867	41
3,50933	12
3,52000	-5
3,53067	-36
3,54133	-44
3,55200	-52
3,56267	-53
3,57333	-59
3,58400	-71
3,59467	-71
3,60533	-61
3,61600	-46
3,62667	-41
3,63733	-38
3,64800	-33
3,65867	-26
3,66933	-16
3,68000	-2
3,69067	4
3,70133	8
3,71200	6
3,72267	19
3,73333	22
3,74400	21
3,75467	25
3,76533	39
3,77600	31
3,78667	27
3,79733	31
3,80800	37
3,81867	39
3,82933	35
3,84000	32
3,85067	34
3,86133	32
3,87200	36
3,88267	40
3,89333	40
3,90400	35
3,91467	28
3,92533	19
3,93600	22
3,94667	22
3,95733	21
3,96800	23
3,97867	11
3,98933	6
4,00000	2
4,01067	9
4,02133	-3
4,03200	-0
4,04267	2
4,05333	-5
4,06400	-9
4,07467	-14
4,08533	-9
4,09600	-13
4,10667	-10
4,11733	-10
4,12800	-9
4,13867	-7
4,14933	-13
4,16000	-2
4,17067	-11
4,18133	-10
4,19200	-5
4,20267	-5
4,21333	-5
4,22400	-8
4,23467	-15
4,24533	-16
4,25600	-9
4,26667	-6
4,27733	-1
4,28800	-11
4,29867	3
4,30933	-2
4,32000	-4
4,33067	-12
4,34133	-12
4,35200	-6
4,36267	-5
4,37333	-3
4,38400	7
4,39467	1
4,40533	0
4,41600	3
4,42667	-2
4,43733	-1
4,44800	-1
4,45867	4
4,46933	4
4,48000	2
4,49067	-4
4,50133	-4
4,51200	-10
4,52267	-1
4,53333	-7
4,54400	1
4,55467	-2
4,56533	-6
4,57600	-5
4,58667	-5
4,59733	-2
4,60800	-4
4,61867	-1
4,62933	8
4,64000	13
4,65067	16
4,66133	20
4,67200	12
4,68267	17
4,69333	24
4,70400	23
4,71467	20
4,72533	29
4,73600	33
4,74667	32
4,75733	33
4,76800	32
4,77867	41
4,78933	49
4,80000	51
4,81067	57
4,82133	62
4,83200	57
4,84267	65
4,85333	61
4,86400	66
4,87467	63
4,88533	60
4,89600	68
4,90667	66
4,91733	74
4,92800	74
4,93867	68
4,94933	76
4,96000	80
4,97067	79
4,98133	81
4,99200	87
5,00267	92
5,01333	97
5,02400	93
5,03467	98
5,04533	98
5,05600	105
5,06667	106
5,07733	112
5,08800	118
5,09867	110
5,10933	113
5,12000	118
5,13067	127
5,14133	137
5,15200	141
5,16267	143
5,17333	139
5,18400	142
5,19467	149
5,20533	156
5,21600	155
5,22667	167
5,23733	173
5,24800	170
5,25867	179
5,26933	183
5,28000	181
5,29067	181
5,30133	187
5,31200	186
5,32267	190
5,33333	195
5,34400	219
5,35467	213
5,36533	218
5,37600	221
5,38667	220
5,39733	227
5,40800	232
5,41867	229
5,42933	229
5,44000	229
5,45067	227
5,46133	237
5,47200	235
5,48267	230
5,49333	237
5,50400	240
5,51467	246
5,52533	254
5,53600	256
5,54667	260
5,55733	267
5,56800	261
5,57867	260
5,58933	265
5,60000	276
5,61067	278
5,62133	276
5,63200	272
5,64267	281
5,65333	287
5,66400	284
5,67467	293
5,68533	302
5,69600	303
5,70667	303
5,71733	306
5,72800	312
5,73867	324
5,74933	324
5,76000	322
5,77067	319
5,78133	323
5,79200	331
5,80267	344
5,81333	343
5,82400	349
5,83467	345
5,84533	350
5,85600	344
5,86667	357
5,87733	358
5,88800	366
5,89867	368
5,90933	372
5,92000	376
5,93067	379
5,94133	383
5,95200	378
5,96267	382
5,97333	389
5,98400	389
5,99467	395
6,00533	393
6,01600	405
6,02667	404
6,03733	412
6,04800	402
6,05867	409
6,06933	417
6,08000	417
6,09067	418
6,10133	426
6,11200	424
6,12267	428
6,13333	434
6,14400	430
6,15467	430
6,16533	427
6,17600	430
6,18667	430
6,19733	436
6,20800	450
6,21867	453
6,22933	451
6,24000	445
6,25067	449
6,26133	448
6,27200	451
6,28267	459
6,29333	459
6,30400	466
6,31467	467
6,32533	471
6,33600	477
6,34667	479
6,35733	485
6,36800	486
6,37867	490
6,38933	490
6,40000	498
6,41067	500
6,42133	511
6,43200	517
6,44267	512
6,45333	521
6,46400	531
6,47467	532
6,48533	532
6,49600	529
6,50667	533
6,51733	534
6,52800	542
6,53867	541
6,54933	537
6,56000	545
6,57067	549
6,58133	553
6,59200	556
6,60267	556
6,61333	556
6,62400	563
6,63467	559
6,64533	559
6,65600	562
6,66667	571
6,67733	570
6,68800	563
6,69867	569
6,70933	578
6,72000	578
6,73067	577
6,74133	580
6,75200	576
6,76267	584
6,77333	586
6,78400	589
6,79467	589
6,80533	584
6,81600	585
6,82667	590
6,83733	592
6,84800	587
6,85867	599
6,86933	593
6,88000	587
6,89067	597
6,90133	601
6,91200	597
6,92267	596
6,93333	607
6,94400	606
6,95467	610
6,96533	612
6,97600	611
6,98667	608
6,99733	614
7,00800	622
7,01867	617
7,02933	625
7,04000	622
7,05067	627
7,06133	632
7,07200	639
7,08267	641
7,09333	639
7,10400	647
7,11467	638
7,12533	642
7,13600	648
7,14667	648
7,15733	655
7,16800	659
7,17867	660
7,18933	661
7,20000	663
7,21067	662
7,22133	664
7,23200	665
7,24267	671
7,25333	677
7,26400	674
7,27467	679
7,28533	676
7,29600	679
7,30667	682
7,31733	687
7,32800	694
7,33867	699
7,34933	696
7,36000	701
7,37067	698
7,38133	702
7,39200	704
7,40267	712
7,41333	718
7,42400	724
7,43467	720
7,44533	723
7,45600	724
7,46667	729
7,47733	727
7,48800	735
7,49867	743
7,50933	738
7,52000	742
7,53067	742
7,54133	746
7,55200	749
7,56267	749
7,57333	751
7,58400	754
7,59467	751
7,60533	754
7,61600	764
7,62667	763
7,63733	770
7,64800	774
7,65867	774
7,66933	774
7,68000	782
7,69067	782
7,70133	786
7,71200	789
7,72267	797
7,73333	800
7,74400	803
7,75467	800
7,76533	801
7,77600	806
7,78667	806
7,79733	817
7,80800	820
7,81867	821
7,82933	816
7,84000	819
7,85067	826
7,86133	833
7,87200	830
7,88267	826
7,89333	828
7,90400	834
7,91467	837
7,92533	841
7,93600	850
7,94667	856
7,95733	857
7,96800	866
7,97867	869
7,98933	875
8,00000	881
8,01067	879
8,02133	880
8,03200	889
8,04267	883
8,05333	887
8,06400	892
8,07467	903
8,08533	904
8,09600	912
8,10667	914
8,11733	913
8,12800	912
8,13867	921
8,14933	923
8,16000	917
8,17067	922
8,18133	933
8,19200	937
8,20267	936
8,21333	927
8,22400	941
8,23467	942
8,24533	941
8,25600	944
8,26667	949
8,27733	949
8,28800	957
8,29867	951
8,30933	945
8,32000	950
8,33067	951
8,34133	955
8,35200	957
8,36267	966
8,37333	970
8,38400	974
8,39467	972
8,40533	977
8,41600	978
8,42667	984
8,43733	986
8,44800	985
8,45867	986
8,46933	995
8,48000	994
8,49067	1003
8,50133	1003
8,51200	1003
8,52267	1002
8,53333	1005
8,54400	1011
8,55467	1012
8,56533	1020
8,57600	1017
8,58667	1017
8,59733	1024
8,60800	1026
8,61867	1028
8,62933	1037
8,64000	1054
8,65067	1062
8,66133	1081
8,67200	1095
8,68267	1141
8,69333	1212
8,70400	1320
8,71467	1489
8,72533	1755
8,73600	2161
8,74667	2753
8,75733	3597
8,76800	4770
8,77867	6343
8,78933	8377
8,80000	10935
8,81067	14034
8,82133	17640
8,83200	21694
8,84267	26088
8,85333	30650
8,86400	35217
8,87467	39631
8,88533	43704
8,89600	47299
8,90667	50304
8,91733	52624
8,92800	54209
8,93867	55037
8,94933	55090
8,96000	54387
8,97067	52960
8,98133	50855
8,99200	48164
9,00267	44965
9,01333	41401
9,02400	37572
9,03467	33615
9,04533	29650
9,05600	25787
9,06667	22143
9,07733	18770
9,08800	15732
9,09867	13062
9,10933	10777
9,12000	8846
9,13067	7260
9,14133	5952
9,15200	4911
9,16267	4081
9,17333	3436
9,18400	2934
9,19467	2547
9,20533	2253
9,21600	2026
9,22667	1855
9,23733	1714
9,24800	1623
9,25867	1546
9,26933	1484
9,28000	1452
9,29067	1415
9,30133	1386
9,31200	1373
9,32267	1357
9,33333	1358
9,34400	1346
9,35467	1353
9,36533	1358
9,37600	1349
9,38667	1346
9,39733	1339
9,40800	1337
9,41867	1344
9,42933	1358
9,44000	1346
9,45067	1345
9,46133	1347
9,47200	1343
9,48267	1347
9,49333	1348
9,50400	1348
9,51467	1346
9,52533	1344
9,53600	1355
9,54667	1358
9,55733	1357
9,56800	1363
9,57867	1361
9,58933	1364
9,60000	1367
9,61067	1365
9,62133	1366
9,63200	1371
9,64267	1378
9,65333	1393
9,66400	1391
9,67467	1395
9,68533	1392
9,69600	1393
9,70667	1408
9,71733	1411
9,72800	1410
9,73867	1415
9,74933	1406
9,76000	1413
9,77067	1432
9,78133	1426
9,79200	1434
9,80267	1441
9,81333	1447
9,82400	1446
9,83467	1453
9,84533	1456
9,85600	1462
9,86667	1472
9,87733	1472
9,88800	1474
9,89867	1478
9,90933	1479
9,92000	1494
9,93067	1502
9,94133	1507
9,95200	1518
9,96267	1522
9,97333	1524
9,98400	1529
9,99467	1546
10,00533	1562
10,01600	1572
10,02667	1584
10,03733	1594
10,04800	1610
10,05867	1627
10,06933	1636
10,08000	1654
10,09067	1665
10,10133	1668
10,11200	1679
10,12267	1683
10,13333	1685
10,14400	1677
10,15467	1680
10,16533	1672
10,17600	1659
10,18667	1651
10,19733	1633
10,20800	1620
10,21867	1604
10,22933	1582
10,24000	1573
10,25067	1562
10,26133	1554
10,27200	1546
10,28267	1543
10,29333	1539
10,30400	1534
10,31467	1528
10,32533	1532
10,33600	1532
10,34667	1536
10,35733	1532
10,36800	1528
10,37867	1536
10,38933	1544
10,40000	1540
10,41067	1548
10,42133	1542
10,43200	1543
10,44267	1540
10,45333	1539
10,46400	1556
10,47467	1555
10,48533	1551
10,49600	1562
10,50667	1569
10,51733	1565
10,52800	1576
10,53867	1579
10,54933	1574
10,56000	1583
10,57067	1584
10,58133	1596
10,59200	1601
10,60267	1601
10,61333	1611
10,62400	1611
10,63467	1608
10,64533	1614
10,65600	1615
10,66667	1628
10,67733	1628
10,68800	1631
10,69867	1634
10,70933	1633
10,72000	1646
10,73067	1647
10,74133	1641
10,75200	1651
10,76267	1646
10,77333	1648
10,78400	1652
10,79467	1661
10,80533	1665
10,81600	1664
10,82667	1664
10,83733	1667
10,84800	1661
10,85867	1669
10,86933	1673
10,88000	1685
10,89067	1686
10,90133	1690
10,91200	1697
10,92267	1702
10,93333	1696
10,94400	1699
10,95467	1709
10,96533	1712
10,97600	1717
10,98667	1715
10,99733	1718
11,00800	1725
11,01867	1725
11,02933	1726
11,04000	1722
11,05067	1720
11,06133	1730
11,07200	1734
11,08267	1735
11,09333	1737
11,10400	1738
11,11467	1743
11,12533	1741
11,13600	1748
11,14667	1755
11,15733	1761
11,16800	1770
11,17867	1766
11,18933	1766
11,20000	1766
11,21067	1780
11,22133	1781
11,23200	1788
11,24267	1782
11,25333	1791
11,26400	1792
11,27467	1794
11,28533	1791
11,29600	1795
11,30667	1799
11,31733	1804
11,32800	1807
11,33867	1807
11,34933	1809
11,36000	1806
11,37067	1816
11,38133	1820
11,39200	1828
11,40267	1831
11,41333	1828
11,42400	1825
11,43467	1830
11,44533	1834
11,45600	1836
11,46667	1838
11,47733	1847
11,48800	1852
11,49867	1850
11,50933	1856
11,52000	1856
11,53067	1864
11,54133	1864
11,55200	1867
11,56267	1866
11,57333	1875
11,58400	1882
11,59467	1889
11,60533	1892
11,61600	1892
11,62667	1897
11,63733	1891
11,64800	1900
11,65867	1899
11,66933	1901
11,68000	1909
11,69067	1919
11,70133	1926
11,71200	1922
11,72267	1929
11,73333	1933
11,74400	1924
11,75467	1930
11,76533	1933
11,77600	1940
11,78667	1940
11,79733	1951
11,80800	1957
11,81867	1964
11,82933	1966
11,84000	1965
11,85067	1974
11,86133	1974
11,87200	1979
11,88267	1980
11,89333	1984
11,90400	1986
11,91467	1993
11,92533	2006
11,93600	2009
11,94667	2011
11,95733	2013
11,96800	2011
11,97867	2011
11,98933	2016
12,00000	2011
12,01067	2010
12,02133	2017
12,03200	2023
12,04267	2026
12,05333	2030
12,06400	2036
12,07467	2036
12,08533	2039
12,09600	2042
12,10667	2047
12,11733	2053
12,12800	2047
12,13867	2053
12,14933	2058
12,16000	2059
12,17067	2060
12,18133	2061
12,19200	2066
12,20267	2071
12,21333	2074
12,22400	2078
12,23467	2089
12,24533	2088
12,25600	2091
12,26667	2100
12,27733	2109
12,28800	2108
12,29867	2113
12,30933	2113
12,32000	2126
12,33067	2129
12,34133	2131
12,35200	2138
12,36267	2144
12,37333	2142
12,38400	2142
12,39467	2143
12,40533	2150
12,41600	2156
12,42667	2154
12,43733	2151
12,44800	2161
12,45867	2172
12,46933	2170
12,48000	2171
12,49067	2178
12,50133	2184
12,51200	2183
12,52267	2189
12,53333	2186
12,54400	2188
12,55467	2195
12,56533	2206
12,57600	2208
12,58667	2212
12,59733	2214
12,60800	2214
12,61867	2224
12,62933	2224
12,64000	2227
12,65067	2229
12,66133	2226
12,67200	2229
12,68267	2233
12,69333	2231
12,70400	2235
12,71467	2247
12,72533	2255
12,73600	2260
12,74667	2260
12,75733	2265
12,76800	2264
12,77867	2268
12,78933	2278
12,80000	2281
12,81067	2294
12,82133	2294
12,83200	2298
12,84267	2300
12,85333	2300
12,86400	2309
12,87467	2316
12,88533	2320
12,89600	2326
12,90667	2330
12,91733	2327
12,92800	2334
12,93867	2341
12,94933	2342
12,96000	2347
12,97067	2349
12,98133	2347
12,99200	2359
13,00267	2357
13,01333	2361
13,02400	2363
13,03467	2366
13,04533	2371
13,05600	2365
13,06667	2379
13,07733	2383
13,08800	2380
13,09867	2387
13,10933	2396
13,12000	2400
13,13067	2402
13,14133	2413
13,15200	2414
13,16267	2420
13,17333	2430
13,18400	2435
13,19467	2437
13,20533	2439
13,21600	2438
13,22667	2443
13,23733	2453
13,24800	2452
13,25867	2451
13,26933	2455
13,28000	2448
13,29067	2454
13,30133	2464
13,31200	2467
13,32267	2468
13,33333	2472
13,34400	2477
13,35467	2477
13,36533	2476
13,37600	2477
13,38667	2484
13,39733	2493
13,40800	2497
13,41867	2496
13,42933	2502
13,44000	2501
13,45067	2507
13,46133	2513
13,47200	2519
13,48267	2522
13,49333	2521
13,50400	2526
13,51467	2533
13,52533	2541
13,53600	2543
13,54667	2548
13,55733	2546
13,56800	2554
13,57867	2561
13,58933	2572
13,60000	2577
13,61067	2575
13,62133	2579
13,63200	2586
13,64267	2584
13,65333	2594
13,66400	2595
13,67467	2598
13,68533	2601
13,69600	2607
13,70667	2616
13,71733	2610
13,72800	2617
13,73867	2621
13,74933	2628
13,76000	2639
13,77067	2642
13,78133	2649
13,79200	2655
13,80267	2666
13,81333	2662
13,82400	2666
13,83467	2680
13,84533	2682
13,85600	2680
13,86667	2688
13,87733	2694
13,88800	2683
13,89867	2694
13,90933	2696
13,92000	2691
13,93067	2704
13,94133	2711
13,95200	2710
13,96267	2710
13,97333	2717
13,98400	2718
13,99467	2725
14,00533	2728
14,01600	2736
14,02667	2733
14,03733	2739
14,04800	2746
14,05867	2755
14,06933	2762
14,08000	2771
14,09067	2767
14,10133	2768
14,11200	2768
14,12267	2775
14,13333	2776
14,14400	2789
14,15467	2797
14,16533	2796
14,17600	2805
14,18667	2814
14,19733	2806
14,20800	2816
14,21867	2823
14,22933	2829
14,24000	2829
14,25067	2833
14,26133	2839
14,27200	2844
14,28267	2853
14,29333	2858
14,30400	2862
14,31467	2866
14,32533	2866
14,33600	2873
14,34667	2878
14,35733	2880
14,36800	2885
14,37867	2886
14,38933	2900
14,40000	2903
14,41067	2909
14,42133	2914
14,43200	2915
14,44267	2920
14,45333	2933
14,46400	2941
14,47467	2938
14,48533	2941
14,49600	2948
14,50667	2954
14,51733	2957
14,52800	2962
14,53867	2968
14,54933	2975
14,56000	2983
14,57067	2984
14,58133	2990
14,59200	2992
14,60267	3001
14,61333	3009
14,62400	3012
14,63467	3014
14,64533	3020
14,65600	3027
14,66667	3036
14,67733	3043
14,68800	3045
14,69867	3048
14,70933	3050
14,72000	3056
14,73067	3061
14,74133	3067
14,75200	3078
14,76267	3085
14,77333	3094
14,78400	3100
14,79467	3101
14,80533	3108
14,81600	3124
14,82667	3126
14,83733	3130
14,84800	3142
14,85867	3146
14,86933	3138
14,88000	3147
14,89067	3166
14,90133	3172
14,91200	3171
14,92267	3173
14,93333	3177
14,94400	3183
14,95467	3188
14,96533	3198
14,97600	3203
14,98667	3204
14,99733	3206
15,00800	3209
15,01867	3219
15,02933	3216
15,04000	3220
15,05067	3226
15,06133	3225
15,07200	3232
15,08267	3237
15,09333	3240
15,10400	3243
15,11467	3242
15,12533	3244
15,13600	3258
15,14667	3267
15,15733	3267
15,16800	3263
15,17867	3271
15,18933	3275
15,20000	3277
15,21067	3279
15,22133	3278
15,23200	3284
15,24267	3301
15,25333	3302
15,26400	3305
15,27467	3306
15,28533	3305
15,29600	3311
15,30667	3321
15,31733	3327
15,32800	3325
15,33867	3328
15,34933	3328
15,36000	3331
15,37067	3339
15,38133	3343
15,39200	3345
15,40267	3363
15,41333	3360
15,42400	3360
15,43467	3370
15,44533	3375
15,45600	3383
15,46667	3389
15,47733	3392
15,48800	3393
15,49867	3403
15,50933	3408
15,52000	3409
15,53067	3411
15,54133	3407
15,55200	3417
15,56267	3418
15,57333	3426
15,58400	3432
15,59467	3432
15,60533	3441
15,61600	3442
15,62667	3437
15,63733	3447
15,64800	3458
15,65867	3461
15,66933	3456
15,68000	3464
15,69067	3472
15,70133	3480
15,71200	3492
15,72267	3500
15,73333	3499
15,74400	3507
15,75467	3518
15,76533	3524
15,77600	3536
15,78667	3533
15,79733	3530
15,80800	3532
15,81867	3543
15,82933	3544
15,84000	3546
15,85067	3559
15,86133	3566
15,87200	3561
15,88267	3573
15,89333	3577
15,90400	3585
15,91467	3583
15,92533	3581
15,93600	3588
15,94667	3586
15,95733	3590
15,96800	3599
15,97867	3606
15,98933	3608
16,00000	3610
16,01067	3614
16,02133	3621
16,03200	3626
16,04267	3631
16,05333	3623
16,06400	3631
16,07467	3637
16,08533	3648
16,09600	3652
16,10667	3651
16,11733	3665
16,12800	3664
16,13867	3671
16,14933	3671
16,16000	3679
16,17067	3685
16,18133	3685
16,19200	3683
16,20267	3689
16,21333	3700
16,22400	3706
16,23467	3709
16,24533	3713
16,25600	3719
16,26667	3726
16,27733	3726
16,28800	3730
16,29867	3731
16,30933	3731
16,32000	3735
16,33067	3749
16,34133	3751
16,35200	3754
16,36267	3762
16,37333	3766
16,38400	3765
16,39467	3764
16,40533	3767
16,41600	3776
16,42667	3775
16,43733	3785
16,44800	3795
16,45867	3797
16,46933	3797
16,48000	3796
16,49067	3804
16,50133	3811
16,51200	3816
16,52267	3821
16,53333	3822
16,54400	3833
16,55467	3833
16,56533	3838
16,57600	3850
16,58667	3850
16,59733	3855
16,60800	3853
16,61867	3861
16,62933	3878
16,64000	3877
16,65067	3882
16,66133	3885
16,67200	3884
16,68267	3888
16,69333	3892
16,70400	3896
16,71467	3902
16,72533	3908
16,73600	3906
16,74667	3901
16,75733	3915
16,76800	3927
16,77867	3936
16,78933	3944
16,80000	3947
16,81067	3952
16,82133	3948
16,83200	3955
16,84267	3963
16,85333	3968
16,86400	3973
16,87467	3972
16,88533	3984
16,89600	3988
16,90667	3996
16,91733	4009
16,92800	4007
16,93867	4006
16,94933	4009
16,96000	4023
16,97067	4026
16,98133	4028
16,99200	4030
17,00267	4027
17,01333	4040
17,02400	4035
17,03467	4046
17,04533	4058
17,05600	4055
17,06667	4060
17,07733	4060
17,08800	4063
17,09867	4063
17,10933	4071
17,12000	4080
17,13067	4091
17,14133	4091
17,15200	4100
17,16267	4091
17,17333	4101
17,18400	4104
17,19467	4112
17,20533	4112
17,21600	4117
17,22667	4133
17,23733	4128
17,24800	4133
17,25867	4143
17,26933	4152
17,28000	4157
17,29067	4162
17,30133	4167
17,31200	4171
17,32267	4179
17,33333	4184
17,34400	4192
17,35467	4204
17,36533	4209
17,37600	4217
17,38667	4227
17,39733	4238
17,40800	4239
17,41867	4246
17,42933	4259
17,44000	4271
17,45067	4268
17,46133	4277
17,47200	4281
17,48267	4279
17,49333	4276
17,50400	4280
17,51467	4280
17,52533	4280
17,53600	4287
17,54667	4288
17,55733	4283
17,56800	4288
17,57867	4289
17,58933	4294
17,60000	4289
17,61067	4296
17,62133	4292
17,63200	4291
17,64267	4294
17,65333	4301
17,66400	4312
17,67467	4317
17,68533	4313
17,69600	4320
17,70667	4333
17,71733	4336
17,72800	4336
17,73867	4347
17,74933	4351
17,76000	4351
17,77067	4355
17,78133	4358
17,79200	4359
17,80267	4368
17,81333	4365
17,82400	4375
17,83467	4374
17,84533	4380
17,85600	4386
17,86667	4394
17,87733	4402
17,88800	4405
17,89867	4410
17,90933	4410
17,92000	4422
17,93067	4422
17,94133	4433
17,95200	4437
17,96267	4449
17,97333	4456
17,98400	4467
17,99467	4470
18,00533	4478
18,01600	4480
18,02667	4479
18,03733	4499
18,04800	4501
18,05867	4509
18,06933	4517
18,08000	4514
18,09067	4527
18,10133	4531
18,11200	4538
18,12267	4540
18,13333	4547
18,14400	4562
18,15467	4573
18,16533	4579
18,17600	4587
18,18667	4596
18,19733	4601
18,20800	4613
18,21867	4643
18,22933	4669
18,24000	4679
18,25067	4692
18,26133	4708
18,27200	4727
18,28267	4746
18,29333	4775
18,30400	4776
18,31467	4797
18,32533	4790
18,33600	4798
18,34667	4787
18,35733	4788
18,36800	4775
18,37867	4769
18,38933	4759
18,40000	4750
18,41067	4738
18,42133	4724
18,43200	4717
18,44267	4706
18,45333	4706
18,46400	4712
18,47467	4705
18,48533	4708
18,49600	4712
18,50667	4715
18,51733	4711
18,52800	4708
18,53867	4721
18,54933	4722
18,56000	4726
18,57067	4723
18,58133	4731
18,59200	4740
18,60267	4745
18,61333	4757
18,62400	4761
18,63467	4757
18,64533	4760
18,65600	4770
18,66667	4776
18,67733	4787
18,68800	4804
18,69867	4815
18,70933	4825
18,72000	4831
18,73067	4841
18,74133	4856
18,75200	4867
18,76267	4885
18,77333	4883
18,78400	4890
18,79467	4883
18,80533	4887
18,81600	4883
18,82667	4886
18,83733	4882
18,84800	4881
18,85867	4884
18,86933	4868
18,88000	4875
18,89067	4865
18,90133	4861
18,91200	4868
18,92267	4871
18,93333	4875
18,94400	4873
18,95467	4877
18,96533	4888
18,97600	4890
18,98667	4897
18,99733	4901
19,00800	4899
19,01867	4902
19,02933	4903
19,04000	4917
19,05067	4920
19,06133	4922
19,07200	4932
19,08267	4939
19,09333	4937
19,10400	4947
19,11467	4961
19,12533	4964
19,13600	4972
19,14667	4977
19,15733	4987
19,16800	4980
19,17867	4987
19,18933	4984
19,20000	4989
19,21067	4993
19,22133	4998
19,23200	5005
19,24267	5008
19,25333	5013
19,26400	5008
19,27467	5018
19,28533	5011
19,29600	5016
19,30667	5026
19,31733	5027
19,32800	5032
19,33867	5045
19,34933	5042
19,36000	5043
19,37067	5038
19,38133	5041
19,39200	5049
19,40267	5054
19,41333	5055
19,42400	5063
19,43467	5062
19,44533	5062
19,45600	5063
19,46667	5069
19,47733	5079
19,48800	5082
19,49867	5084
19,50933	5094
19,52000	5098
19,53067	5103
19,54133	5099
19,55200	5106
19,56267	5116
19,57333	5115
19,58400	5128
19,59467	5130
19,60533	5136
19,61600	5139
19,62667	5138
19,63733	5142
19,64800	5152
19,65867	5152
19,66933	5162
19,68000	5172
19,69067	5169
19,70133	5174
19,71200	5169
19,72267	5176
19,73333	5184
19,74400	5197
19,75467	5201
19,76533	5212
19,77600	5221
19,78667	5227
19,79733	5225
19,80800	5230
19,81867	5238
19,82933	5244
19,84000	5253
19,85067	5254
19,86133	5254
19,87200	5261
19,88267	5259
19,89333	5265
19,90400	5270
19,91467	5271
19,92533	5271
19,93600	5276
19,94667	5280
19,95733	5286
19,96800	5286
19,97867	5292
19,98933	5298
20,00000	5307
20,01067	5310
20,02133	5316
20,03200	5313
20,04267	5323
20,05333	5320
20,06400	5318
20,07467	5329
20,08533	5336
20,09600	5335
20,10667	5335
20,11733	5347
20,12800	5353
20,13867	5360
20,14933	5357
20,16000	5372
20,17067	5380
20,18133	5384
20,19200	5387
20,20267	5392
20,21333	5397
20,22400	5405
20,23467	5407
20,24533	5407
20,25600	5418
20,26667	5424
20,27733	5421
20,28800	5428
20,29867	5434
20,30933	5435
20,32000	5442
20,33067	5447
20,34133	5449
20,35200	5459
20,36267	5465
20,37333	5471
20,38400	5479
20,39467	5481
20,40533	5484
20,41600	5489
20,42667	5491
20,43733	5500
20,44800	5501
20,45867	5501
20,46933	5511
20,48000	5519
20,49067	5525
20,50133	5524
20,51200	5518
20,52267	5526
20,53333	5538
20,54400	5548
20,55467	5548
20,56533	5549
20,57600	5555
20,58667	5565
20,59733	5565
20,60800	5559
20,61867	5562
20,62933	5569
20,64000	5577
20,65067	5577
20,66133	5586
20,67200	5597
20,68267	5596
20,69333	5597
20,70400	5608
20,71467	5613
20,72533	5611
20,73600	5612
20,74667	5628
20,75733	5632
20,76800	5637
20,77867	5644
20,78933	5646
20,80000	5650
20,81067	5659
20,82133	5664
20,83200	5669
20,84267	5675
20,85333	5679
20,86400	5685
20,87467	5690
20,88533	5697
20,89600	5697
20,90667	5702
20,91733	5715
20,92800	5722
20,93867	5716
20,94933	5725
20,96000	5731
20,97067	5735
20,98133	5741
20,99200	5735
21,00267	5747
21,01333	5746
21,02400	5752
21,03467	5750
21,04533	5762
21,05600	5760
21,06667	5764
21,07733	5773
21,08800	5779
21,09867	5781
21,10933	5789
21,12000	5789
21,13067	5787
21,14133	5796
21,15200	5803
21,16267	5805
21,17333	5811
21,18400	5813
21,19467	5823
21,20533	5829
21,21600	5827
21,22667	5831
21,23733	5834
21,24800	5840
21,25867	5851
21,26933	5856
21,28000	5854
21,29067	5876
21,30133	5882
21,31200	5889
21,32267	5893
21,33333	5902
21,34400	5904
21,35467	5921
21,36533	5924
21,37600	5928
21,38667	5937
21,39733	5952
21,40800	5952
21,41867	5956
21,42933	5960
21,44000	5966
21,45067	5955
21,46133	5960
21,47200	5962
21,48267	5964
21,49333	5961
21,50400	5967
21,51467	5978
21,52533	5990
21,53600	5990
21,54667	5992
21,55733	5997
21,56800	5991
21,57867	5990
21,58933	6003
21,60000	6006
21,61067	6011
21,62133	6017
21,63200	6020
21,64267	6023
21,65333	6028
21,66400	6035
21,67467	6040
21,68533	6050
21,69600	6053
21,70667	6060
21,71733	6068
21,72800	6066
21,73867	6073
21,74933	6082
21,76000	6078
21,77067	6082
21,78133	6094
21,79200	6092
21,80267	6093
21,81333	6103
21,82400	6102
21,83467	6103
21,84533	6114
21,85600	6117
21,86667	6124
21,87733	6128
21,88800	6137
21,89867	6146
21,90933	6148
21,92000	6152
21,93067	6152
21,94133	6160
21,95200	6164
21,96267	6169
21,97333	6169
21,98400	6187
21,99467	6180
22,00533	6197
22,01600	6206
22,02667	6210
22,03733	6218
22,04800	6223
22,05867	6231
22,06933	6222
22,08000	6231
22,09067	6242
22,10133	6251
22,11200	6250
22,12267	6248
22,13333	6248
22,14400	6251
22,15467	6267
22,16533	6270
22,17600	6274
22,18667	6285
22,19733	6292
22,20800	6300
22,21867	6302
22,22933	6309
22,24000	6311
22,25067	6319
22,26133	6330
22,27200	6332
22,28267	6342
22,29333	6349
22,30400	6346
22,31467	6348
22,32533	6356
22,33600	6362
22,34667	6374
22,35733	6377
22,36800	6376
22,37867	6385
22,38933	6397
22,40000	6406
22,41067	6410
22,42133	6413
22,43200	6418
22,44267	6419
22,45333	6433
22,46400	6445
22,47467	6450
22,48533	6453
22,49600	6461
22,50667	6470
22,51733	6482
22,52800	6495
22,53867	6501
22,54933	6516
22,56000	6520
22,57067	6527
22,58133	6536
22,59200	6539
22,60267	6553
22,61333	6560
22,62400	6558
22,63467	6566
22,64533	6570
22,65600	6573
22,66667	6572
22,67733	6576
22,68800	6583
22,69867	6582
22,70933	6578
22,72000	6570
22,73067	6573
22,74133	6576
22,75200	6588
22,76267	6585
22,77333	6590
22,78400	6593
22,79467	6600
22,80533	6595
22,81600	6603
22,82667	6608
22,83733	6609
22,84800	6620
22,85867	6623
22,86933	6625
22,88000	6634
22,89067	6645
22,90133	6642
22,91200	6642
22,92267	6646
22,93333	6661
22,94400	6662
22,95467	6670
22,96533	6674
22,97600	6681
22,98667	6688
22,99733	6688
23,00800	6701
23,01867	6703
23,02933	6710
23,04000	6716
23,05067	6711
23,06133	6719
23,07200	6727
23,08267	6733
23,09333	6737
23,10400	6746
23,11467	6750
23,12533	6761
23,13600	6768
23,14667	6772
23,15733	6775
23,16800	6781
23,17867	6776
23,18933	6786
23,20000	6788
23,21067	6802
23,22133	6805
23,23200	6809
23,24267	6810
23,25333	6816
23,26400	6821
23,27467	6820
23,28533	6827
23,29600	6835
23,30667	6838
23,31733	6843
23,32800	6853
23,33867	6866
23,34933	6873
23,36000	6875
23,37067	6887
23,38133	6883
23,39200	6890
23,40267	6902
23,41333	6904
23,42400	6914
23,43467	6919
23,44533	6935
23,45600	6937
23,46667	6938
23,47733	6950
23,48800	6958
23,49867	6955
23,50933	6960
23,52000	6967
23,53067	6971
23,54133	6974
23,55200	6975
23,56267	6982
23,57333	6992
23,58400	6997
23,59467	6996
23,60533	7004
23,61600	7013
23,62667	7014
23,63733	7018
23,64800	7020
23,65867	7028
23,66933	7044
23,68000	7041
23,69067	7051
23,70133	7051
23,71200	7054
23,72267	7073
23,73333	7076
23,74400	7076
23,75467	7092
23,76533	7095
23,77600	7094
23,78667	7099
23,79733	7108
23,80800	7118
23,81867	7122
23,82933	7127
23,84000	7133
23,85067	7136
23,86133	7134
23,87200	7144
23,88267	7153
23,89333	7158
23,90400	7163
23,91467	7177
23,92533	7175
23,93600	7183
23,94667	7194
23,95733	7211
23,96800	7202
23,97867	7204
23,98933	7211
24,00000	7220
24,01067	7215
24,02133	7225
24,03200	7228
24,04267	7239
24,05333	7237
24,06400	7242
24,07467	7247
24,08533	7251
24,09600	7254
24,10667	7258
24,11733	7260
24,12800	7274
24,13867	7284
24,14933	7294
24,16000	7294
24,17067	7295
24,18133	7301
24,19200	7310
24,20267	7317
24,21333	7325
24,22400	7332
24,23467	7328
24,24533	7342
24,25600	7343
24,26667	7343
24,27733	7350
24,28800	7359
24,29867	7363
24,30933	7369
24,32000	7368
24,33067	7383
24,34133	7385
24,35200	7386
24,36267	7393
24,37333	7395
24,38400	7398
24,39467	7405
24,40533	7412
24,41600	7419
24,42667	7430
24,43733	7432
24,44800	7429
24,45867	7435
24,46933	7444
24,48000	7454
24,49067	7454
24,50133	7456
24,51200	7462
24,52267	7472
24,53333	7481
24,54400	7489
24,55467	7489
24,56533	7491
24,57600	7491
24,58667	7502
24,59733	7511
24,60800	7522
24,61867	7537
24,62933	7534
24,64000	7538
24,65067	7551
24,66133	7552
24,67200	7560
24,68267	7571
24,69333	7572
24,70400	7581
24,71467	7598
24,72533	7597
24,73600	7597
24,74667	7600
24,75733	7606
24,76800	7608
24,77867	7609
24,78933	7622
24,80000	7633
24,81067	7638
24,82133	7647
24,83200	7647
24,84267	7641
24,85333	7652
24,86400	7665
24,87467	7667
24,88533	7674
24,89600	7687
24,90667	7696
24,91733	7700
24,92800	7702
24,93867	7713
24,94933	7719
24,96000	7732
24,97067	7738
24,98133	7738
24,99200	7744
25,00267	7756
25,01333	7766
25,02400	7775
25,03467	7781
25,04533	7780
25,05600	7792
25,06667	7798
25,07733	7807
25,08800	7808
25,09867	7806
25,10933	7813
25,12000	7827
25,13067	7835
25,14133	7845
25,15200	7849
25,16267	7848
25,17333	7855
25,18400	7868
25,19467	7872
25,20533	7872
25,21600	7882
25,22667	7883
25,23733	7893
25,24800	7898
25,25867	7913
25,26933	7918
25,28000	7920
25,29067	7940
25,30133	7945
25,31200	7957
25,32267	7967
25,33333	7976
25,34400	7983
25,35467	7993
25,36533	7997
25,37600	8006
25,38667	8013
25,39733	8023
25,40800	8033
25,41867	8036
25,42933	8043
25,44000	8055
25,45067	8065
25,46133	8078
25,47200	8090
25,48267	8099
25,49333	8105
25,50400	8117
25,51467	8117
25,52533	8120
25,53600	8130
25,54667	8142
25,55733	8156
25,56800	8166
25,57867	8163
25,58933	8181
25,60000	8186
25,61067	8192
25,62133	8201
25,63200	8208
25,64267	8217
25,65333	8228
25,66400	8233
25,67467	8241
25,68533	8251
25,69600	8257
25,70667	8265
25,71733	8269
25,72800	8282
25,73867	8291
25,74933	8296
25,76000	8302
25,77067	8305
25,78133	8315
25,79200	8318
25,80267	8337
25,81333	8342
25,82400	8345
25,83467	8357
25,84533	8367
25,85600	8369
25,86667	8375
25,87733	8387
25,88800	8401
25,89867	8407
25,90933	8412
25,92000	8420
25,93067	8428
25,94133	8437
25,95200	8442
25,96267	8454
25,97333	8454
25,98400	8452
25,99467	8466
26,00533	8473
26,01600	8476
26,02667	8487
26,03733	8487
26,04800	8500
26,05867	8505
26,06933	8515
26,08000	8524
26,09067	8528
26,10133	8537
26,11200	8545
26,12267	8555
26,13333	8560
26,14400	8566
26,15467	8576
26,16533	8590
26,17600	8594
26,18667	8603
26,19733	8612
26,20800	8615
26,21867	8630
26,22933	8634
26,24000	8645
26,25067	8660
26,26133	8665
26,27200	8670
26,28267	8679
26,29333	8684
26,30400	8693
26,31467	8702
26,32533	8703
26,33600	8715
26,34667	8721
26,35733	8726
26,36800	8735
26,37867	8742
26,38933	8754
26,40000	8759
26,41067	8757
26,42133	8773
26,43200	8778
26,44267	8786
26,45333	8795
26,46400	8801
26,47467	8805
26,48533	8809
26,49600	8816
26,50667	8826
26,51733	8829
26,52800	8836
26,53867	8828
26,54933	8844
26,56000	8859
26,57067	8868
26,58133	8877
26,59200	8882
26,60267	8899
26,61333	8908
26,62400	8917
26,63467	8919
26,64533	8934
26,65600	8935
26,66667	8944
26,67733	8958
26,68800	8972
26,69867	8981
26,70933	8997
26,72000	9009
26,73067	9035
26,74133	9046
26,75200	9063
26,76267	9091
26,77333	9105
26,78400	9124
26,79467	9132
26,80533	9140
26,81600	9143
26,82667	9153
26,83733	9144
26,84800	9150
26,85867	9144
26,86933	9140
26,88000	9134
26,89067	9140
26,90133	9131
26,91200	9132
26,92267	9139
26,93333	9144
26,94400	9146
26,95467	9150
26,96533	9165
26,97600	9159
26,98667	9154
26,99733	9162
27,00800	9168
27,01867	9169
27,02933	9178
27,04000	9177
27,05067	9181
27,06133	9187
27,07200	9192
27,08267	9192
27,09333	9198
27,10400	9203
27,11467	9209
27,12533	9214
27,13600	9214
27,14667	9216
27,15733	9235
27,16800	9243
27,17867	9250
27,18933	9248
27,20000	9250
27,21067	9261
27,22133	9274
27,23200	9273
27,24267	9282
27,25333	9280
27,26400	9289
27,27467	9301
27,28533	9309
27,29600	9316
27,30667	9323
27,31733	9329
27,32800	9337
27,33867	9335
27,34933	9342
27,36000	9344
27,37067	9352
27,38133	9365
27,39200	9365
27,40267	9374
27,41333	9369
27,42400	9373
27,43467	9387
27,44533	9383
27,45600	9392
27,46667	9395
27,47733	9409
27,48800	9408
27,49867	9412
27,50933	9416
27,52000	9423
27,53067	9429
27,54133	9430
27,55200	9441
27,56267	9450
27,57333	9454
27,58400	9472
27,59467	9476
27,60533	9479
27,61600	9488
27,62667	9484
27,63733	9491
27,64800	9492
27,65867	9502
27,66933	9508
27,68000	9516
27,69067	9519
27,70133	9529
27,71200	9536
27,72267	9542
27,73333	9554
27,74400	9564
27,75467	9568
27,76533	9572
27,77600	9578
27,78667	9583
27,79733	9597
27,80800	9602
27,81867	9607
27,82933	9615
27,84000	9624
27,85067	9630
27,86133	9636
27,87200	9646
27,88267	9656
27,89333	9662
27,90400	9668
27,91467	9675
27,92533	9690
27,93600	9703
27,94667	9711
27,95733	9718
27,96800	9722
27,97867	9730
27,98933	9734
28,00000	9746
28,01067	9754
28,02133	9764
28,03200	9771
28,04267	9790
28,05333	9798
28,06400	9804
28,07467	9811
28,08533	9824
28,09600	9839
28,10667	9846
28,11733	9861
28,12800	9879
28,13867	9881
28,14933	9895
28,16000	9908
28,17067	9920
28,18133	9929
28,19200	9945
28,20267	9961
28,21333	9967
28,22400	9978
28,23467	9989
28,24533	9992
28,25600	10009
28,26667	10011
28,27733	10014
28,28800	10021
28,29867	10031
28,30933	10039
28,32000	10048
28,33067	10052
28,34133	10059
28,35200	10083
28,36267	10085
28,37333	10094
28,38400	10102
28,39467	10117
28,40533	10134
28,41600	10147
28,42667	10156
28,43733	10162
28,44800	10179
28,45867	10184
28,46933	10187
28,48000	10192
28,49067	10203
28,50133	10205
28,51200	10216
28,52267	10226
28,53333	10236
28,54400	10244
28,55467	10248
28,56533	10250
28,57600	10261
28,58667	10270
28,59733	10273
28,60800	10285
28,61867	10295
28,62933	10302
28,64000	10309
28,65067	10316
28,66133	10309
28,67200	10316
28,68267	10330
28,69333	10333
28,70400	10329
28,71467	10335
28,72533	10340
28,73600	10337
28,74667	10352
28,75733	10361
28,76800	10364
28,77867	10359
28,78933	10370
28,80000	10374
28,81067	10379
28,82133	10381
28,83200	10383
28,84267	10382
28,85333	10381
28,86400	10386
28,87467	10403
28,88533	10404
28,89600	10417
28,90667	10428
28,91733	10424
28,92800	10434
28,93867	10432
28,94933	10435
28,96000	10442
28,97067	10453
28,98133	10453
28,99200	10453
29,00267	10461
29,01333	10471
29,02400	10471
29,03467	10473
29,04533	10484
29,05600	10490
29,06667	10493
29,07733	10498
29,08800	10500
29,09867	10513
29,10933	10523
29,12000	10526
29,13067	10539
29,14133	10539
29,15200	10542
29,16267	10552
29,17333	10559
29,18400	10559
29,19467	10578
29,20533	10586
29,21600	10597
29,22667	10610
29,23733	10619
29,24800	10628
29,25867	10645
29,26933	10645
29,28000	10656
29,29067	10677
29,30133	10692
29,31200	10703
29,32267	10715
29,33333	10723
29,34400	10730
29,35467	10745
29,36533	10753
29,37600	10760
29,38667	10774
29,39733	10780
29,40800	10792
29,41867	10790
29,42933	10801
29,44000	10805
29,45067	10804
29,46133	10817
29,47200	10824
29,48267	10832
29,49333	10842
29,50400	10847
29,51467	10850
29,52533	10865
29,53600	10883
29,54667	10893
29,55733	10898
29,56800	10912
29,57867	10921
29,58933	10936
29,60000	10947
29,61067	10954
29,62133	10962
29,63200	10981
29,64267	10992
29,65333	11004
29,66400	11005
29,67467	11007
29,68533	11015
29,69600	11020
29,70667	11028
29,71733	11023
29,72800	11020
29,73867	11013
29,74933	11010
29,76000	11010
29,77067	11016
29,78133	11012
29,79200	11017
29,80267	11020
29,81333	11023
29,82400	11030
29,83467	11038
29,84533	11043
29,85600	11045
29,86667	11042
29,87733	11053
29,88800	11061
29,89867	11068
29,90933	11077
29,92000	11093
29,93067	11103
29,94133	11109
29,95200	11113
29,96267	11127
29,97333	11134
29,98400	11139
29,99467	11150
30,00533	11159
30,01600	11164
30,02667	11176
30,03733	11184
30,04800	11198
30,05867	11209
30,06933	11225
30,08000	11227
30,09067	11234
30,10133	11238
30,11200	11248
30,12267	11261
30,13333	11276
30,14400	11287
30,15467	11293
30,16533	11293
30,17600	11302
30,18667	11306
30,19733	11306
30,20800	11313
30,21867	11322
30,22933	11328
30,24000	11342
30,25067	11338
30,26133	11339
30,27200	11343
30,28267	11347
30,29333	11352
30,30400	11365
30,31467	11374
30,32533	11377
30,33600	11379
30,34667	11388
30,35733	11392
30,36800	11407
30,37867	11420
30,38933	11427
30,40000	11436
30,41067	11452
30,42133	11460
30,43200	11467
30,44267	11475
30,45333	11479
30,46400	11487
30,47467	11505
30,48533	11511
30,49600	11528
30,50667	11543
30,51733	11549
30,52800	11562
30,53867	11565
30,54933	11583
30,56000	11592
30,57067	11604
30,58133	11622
30,59200	11632
30,60267	11638
30,61333	11652
30,62400	11664
30,63467	11673
30,64533	11675
30,65600	11689
30,66667	11699
30,67733	11706
30,68800	11713
30,69867	11721
30,70933	11732
30,72000	11742
30,73067	11749
30,74133	11755
30,75200	11767
30,76267	11777
30,77333	11791
30,78400	11805
30,79467	11810
30,80533	11819
30,81600	11831
30,82667	11837
30,83733	11850
30,84800	11859
30,85867	11869
30,86933	11879
30,88000	11886
30,89067	11896
30,90133	11907
30,91200	11913
30,92267	11929
30,93333	11939
30,94400	11946
30,95467	11958
30,96533	11968
30,97600	11975
30,98667	11978
30,99733	11988
31,00800	12001
31,01867	12004
31,02933	12017
31,04000	12021
31,05067	12026
31,06133	12035
31,07200	12043
31,08267	12051
31,09333	12061
31,10400	12069
31,11467	12074
31,12533	12076
31,13600	12080
31,14667	12094
31,15733	12106
31,16800	12111
31,17867	12108
31,18933	12112
31,20000	12119
31,21067	12133
31,22133	12142
31,23200	12152
31,24267	12164
31,25333	12167
31,26400	12181
31,27467	12189
31,28533	12193
31,29600	12191
31,30667	12200
31,31733	12205
31,32800	12210
31,33867	12223
31,34933	12222
31,36000	12234
31,37067	12234
31,38133	12243
31,39200	12246
31,40267	12260
31,41333	12271
31,42400	12273
31,43467	12278
31,44533	12287
31,45600	12288
31,46667	12298
31,47733	12302
31,48800	12311
31,49867	12320
31,50933	12331
31,52000	12344
31,53067	12343
31,54133	12358
31,55200	12369
31,56267	12378
31,57333	12388
31,58400	12392
31,59467	12403
31,60533	12412
31,61600	12423
31,62667	12439
31,63733	12450
31,64800	12457
31,65867	12467
31,66933	12468
31,68000	12474
31,69067	12482
31,70133	12493
31,71200	12496
31,72267	12497
31,73333	12506
31,74400	12511
31,75467	12509
31,76533	12524
31,77600	12532
31,78667	12540
31,79733	12545
31,80800	12546
31,81867	12550
31,82933	12559
31,84000	12568
31,85067	12577
31,86133	12573
31,87200	12586
31,88267	12593
31,89333	12602
31,90400	12604
31,91467	12604
31,92533	12614
31,93600	12621
31,94667	12627
31,95733	12628
31,96800	12638
31,97867	12650
31,98933	12656
32,00000	12656
32,01067	12660
32,02133	12662
32,03200	12669
32,04267	12682
32,05333	12686
32,06400	12695
32,07467	12702
32,08533	12711
32,09600	12719
32,10667	12713
32,11733	12721
32,12800	12726
32,13867	12733
32,14933	12731
32,16000	12741
32,17067	12751
32,18133	12762
32,19200	12770
32,20267	12784
32,21333	12790
32,22400	12794
32,23467	12800
32,24533	12806
32,25600	12827
32,26667	12831
32,27733	12835
32,28800	12838
32,29867	12845
32,30933	12864
32,32000	12878
32,33067	12890
32,34133	12899
32,35200	12910
32,36267	12913
32,37333	12930
32,38400	12945
32,39467	12949
32,40533	12972
32,41600	12978
32,42667	12991
32,43733	13001
32,44800	13021
32,45867	13040
32,46933	13067
32,48000	13091
32,49067	13107
32,50133	13122
32,51200	13141
32,52267	13167
32,53333	13183
32,54400	13214
32,55467	13231
32,56533	13247
32,57600	13276
32,58667	13312
32,59733	13336
32,60800	13365
32,61867	13391
32,62933	13425
32,64000	13453
32,65067	13493
32,66133	13528
32,67200	13566
32,68267	13604
32,69333	13648
32,70400	13679
32,71467	13728
32,72533	13774
32,73600	13812
32,74667	13860
32,75733	13901
32,76800	13944
32,77867	13999
32,78933	14045
32,80000	14100
32,81067	14158
32,82133	14215
32,83200	14271
32,84267	14332
32,85333	14399
32,86400	14470
32,87467	14541
32,88533	14624
32,89600	14706
32,90667	14792
32,91733	14885
32,92800	14987
32,93867	15080
32,94933	15189
32,96000	15296
32,97067	15398
32,98133	15510
32,99200	15622
33,00267	15732
33,01333	15825
33,02400	15931
33,03467	16025
33,04533	16121
33,05600	16210
33,06667	16305
33,07733	16397
33,08800	16498
33,09867	16580
33,10933	16666
33,12000	16757
33,13067	16850
33,14133	16937
33,15200	17029
33,16267	17127
33,17333	17230
33,18400	17323
33,19467	17422
33,20533	17521
33,21600	17616
33,22667	17713
33,23733	17819
33,24800	17926
33,25867	18020
33,26933	18124
33,28000	18221
33,29067	18317
33,30133	18413
33,31200	18501
33,32267	18604
33,33333	18688
33,34400	18782
33,35467	18863
33,36533	18951
33,37600	19043
33,38667	19120
33,39733	19204
33,40800	19298
33,41867	19391
33,42933	19476
33,44000	19581
33,45067	19673
33,46133	19773
33,47200	19870
33,48267	19966
33,49333	20061
33,50400	20159
33,51467	20242
33,52533	20344
33,53600	20444
33,54667	20538
33,55733	20643
33,56800	20738
33,57867	20839
33,58933	20947
33,60000	21052
33,61067	21163
33,62133	21266
33,63200	21375
33,64267	21492
33,65333	21608
33,66400	21732
33,67467	21846
33,68533	21962
33,69600	22069
33,70667	22179
33,71733	22285
33,72800	22384
33,73867	22500
33,74933	22599
33,76000	22713
33,77067	22816
33,78133	22930
33,79200	23028
33,80267	23138
33,81333	23234
33,82400	23338
33,83467	23451
33,84533	23561
33,85600	23672
33,86667	23795
33,87733	23921
33,88800	24045
33,89867	24160
33,90933	24274
33,92000	24390
33,93067	24497
33,94133	24608
33,95200	24707
33,96267	24818
33,97333	24921
33,98400	25024
33,99467	25140
34,00533	25261
34,01600	25388
34,02667	25522
34,03733	25677
34,04800	25844
34,05867	26041
34,06933	26238
34,08000	26431
34,09067	26605
34,10133	26717
34,11200	26799
34,12267	26858
34,13333	26919
34,14400	26993
34,15467	27077
34,16533	27176
34,17600	27293
34,18667	27428
34,19733	27609
34,20800	27800
34,21867	28003
34,22933	28227
34,24000	28460
34,25067	28698
34,26133	28925
34,27200	29145
34,28267	29344
34,29333	29522
34,30400	29660
34,31467	29759
34,32533	29835
34,33600	29906
34,34667	29983
34,35733	30075
34,36800	30180
34,37867	30301
34,38933	30454
34,40000	30633
34,41067	30856
34,42133	31130
34,43200	31433
34,44267	31741
34,45333	32011
34,46400	32220
34,47467	32388
34,48533	32486
34,49600	32532
34,50667	32560
34,51733	32576
34,52800	32588
34,53867	32606
34,54933	32624
34,56000	32647
34,57067	32684
34,58133	32731
34,59200	32774
34,60267	32831
34,61333	32909
34,62400	33006
34,63467	33096
34,64533	33170
34,65600	33242
34,66667	33310
34,67733	33370
34,68800	33440
34,69867	33519
34,70933	33604
34,72000	33690
34,73067	33780
34,74133	33876
34,75200	33983
34,76267	34109
34,77333	34244
34,78400	34396
34,79467	34562
34,80533	34722
34,81600	34868
34,82667	35016
34,83733	35175
34,84800	35339
34,85867	35505
34,86933	35651
34,88000	35764
34,89067	35859
34,90133	35925
34,91200	36012
34,92267	36109
34,93333	36228
34,94400	36357
34,95467	36532
34,96533	36832
34,97600	37518
34,98667	39253
34,99733	43152
35,00800	50670
35,01867	63008
35,02933	80632
35,04000	102073
35,05067	123684
35,06133	139766
35,07200	145285
35,08267	139247
35,09333	125425
35,10400	109141
35,11467	94391
35,12533	82657
35,13600	74017
35,14667	67857
35,15733	63638
35,16800	60769
35,17867	58784
35,18933	57225
35,20000	55823
35,21067	54499
35,22133	53306
35,23200	52276
35,24267	51434
35,25333	50744
35,26400	50163
35,27467	49678
35,28533	49272
35,29600	48906
35,30667	48576
35,31733	48286
35,32800	48042
35,33867	47857
35,34933	47730
35,36000	47575
35,37067	47307
35,38133	46889
35,39200	46403
35,40267	46016
35,41333	45863
35,42400	46124
35,43467	47056
35,44533	48811
35,45600	51179
35,46667	53430
35,47733	54804
35,48800	55034
35,49867	54424
35,50933	53362
35,52000	52148
35,53067	50895
35,54133	49774
35,55200	49064
35,56267	48982
35,57333	49448
35,58400	50044
35,59467	50301
35,60533	49986
35,61600	49236
35,62667	48363
35,63733	47593
35,64800	46958
35,65867	46464
35,66933	46067
35,68000	45777
35,69067	45590
35,70133	45455
35,71200	45374
35,72267	45346
35,73333	45353
35,74400	45378
35,75467	45431
35,76533	45524
35,77600	45663
35,78667	45893
35,79733	46255
35,80800	46758
35,81867	47350
35,82933	47902
35,84000	48246
35,85067	48361
35,86133	48315
35,87200	48174
35,88267	48008
35,89333	47759
35,90400	47444
35,91467	47097
35,92533	46776
35,93600	46496
35,94667	46271
35,95733	46108
35,96800	46019
35,97867	46005
35,98933	46040
36,00000	46138
36,01067	46254
36,02133	46359
36,03200	46393
36,04267	46362
36,05333	46289
36,06400	46213
36,07467	46149
36,08533	46122
36,09600	46135
36,10667	46184
36,11733	46272
36,12800	46388
36,13867	46531
36,14933	46705
36,16000	46879
36,17067	47055
36,18133	47191
36,19200	47298
36,20267	47391
36,21333	47488
36,22400	47594
36,23467	47699
36,24533	47758
36,25600	47765
36,26667	47727
36,27733	47705
36,28800	47777
36,29867	48015
36,30933	48367
36,32000	48711
36,33067	48902
36,34133	48858
36,35200	48609
36,36267	48287
36,37333	47976
36,38400	47707
36,39467	47507
36,40533	47342
36,41600	47192
36,42667	47078
36,43733	46974
36,44800	46916
36,45867	46877
36,46933	46845
36,48000	46843
36,49067	46856
36,50133	46866
36,51200	46876
36,52267	46885
36,53333	46894
36,54400	46892
36,55467	46897
36,56533	46904
36,57600	46899
36,58667	46895
36,59733	46897
36,60800	46895
36,61867	46896
36,62933	46908
36,64000	46927
36,65067	46957
36,66133	46995
36,67200	47032
36,68267	47066
36,69333	47082
36,70400	47082
36,71467	47088
36,72533	47080
36,73600	47095
36,74667	47131
36,75733	47187
36,76800	47256
36,77867	47307
36,78933	47301
36,80000	47236
36,81067	47141
36,82133	47035
36,83200	46944
36,84267	46868
36,85333	46808
36,86400	46769
36,87467	46745
36,88533	46725
36,89600	46700
36,90667	46684
36,91733	46673
36,92800	46672
36,93867	46675
36,94933	46708
36,96000	46773
36,97067	46901
36,98133	47091
36,99200	47314
37,00267	47564
37,01333	47763
37,02400	47880
37,03467	47881
37,04533	47762
37,05600	47577
37,06667	47346
37,07733	47134
37,08800	46951
37,09867	46804
37,10933	46697
37,12000	46634
37,13067	46597
37,14133	46577
37,15200	46570
37,16267	46594
37,17333	46652
37,18400	46729
37,19467	46816
37,20533	46887
37,21600	46946
37,22667	46948
37,23733	46908
37,24800	46831
37,25867	46744
37,26933	46646
37,28000	46586
37,29067	46540
37,30133	46498
37,31200	46473
37,32267	46441
37,33333	46421
37,34400	46411
37,35467	46403
37,36533	46387
37,37600	46384
37,38667	46387
37,39733	46394
37,40800	46388
37,41867	46385
37,42933	46387
37,44000	46397
37,45067	46397
37,46133	46394
37,47200	46405
37,48267	46404
37,49333	46401
37,50400	46408
37,51467	46405
37,52533	46411
37,53600	46406
37,54667	46399
37,55733	46392
37,56800	46379
37,57867	46370
37,58933	46361
37,60000	46351
37,61067	46353
37,62133	46354
37,63200	46350
37,64267	46337
37,65333	46338
37,66400	46346
37,67467	46338
37,68533	46339
37,69600	46341
37,70667	46341
37,71733	46355
37,72800	46380
37,73867	46395
37,74933	46423
37,76000	46451
37,77067	46480
37,78133	46488
37,79200	46489
37,80267	46478
37,81333	46468
37,82400	46453
37,83467	46425
37,84533	46408
37,85600	46380
37,86667	46368
37,87733	46358
37,88800	46352
37,89867	46331
37,90933	46319
37,92000	46316
37,93067	46312
37,94133	46309
37,95200	46303
37,96267	46301
37,97333	46302
37,98400	46305
37,99467	46300
38,00533	46295
38,01600	46288
38,02667	46291
38,03733	46291
38,04800	46287
38,05867	46288
38,06933	46285
38,08000	46281
38,09067	46272
38,10133	46269
38,11200	46261
38,12267	46259
38,13333	46251
38,14400	46256
38,15467	46252
38,16533	46253
38,17600	46257
38,18667	46254
38,19733	46262
38,20800	46266
38,21867	46275
38,22933	46281
38,24000	46289
38,25067	46296
38,26133	46290
38,27200	46291
38,28267	46293
38,29333	46286
38,30400	46290
38,31467	46278
38,32533	46273
38,33600	46255
38,34667	46249
38,35733	46253
38,36800	46250
38,37867	46248
38,38933	46240
38,40000	46245
38,41067	46251
38,42133	46251
38,43200	46248
38,44267	46238
38,45333	46237
38,46400	46241
38,47467	46244
38,48533	46244
38,49600	46253
38,50667	46251
38,51733	46256
38,52800	46259
38,53867	46253
38,54933	46258
38,56000	46255
38,57067	46260
38,58133	46263
38,59200	46257
38,60267	46259
38,61333	46264
38,62400	46264
38,63467	46271
38,64533	46287
38,65600	46294
38,66667	46296
38,67733	46314
38,68800	46332
38,69867	46343
38,70933	46364
38,72000	46398
38,73067	46452
38,74133	46531
38,75200	46678
38,76267	46938
38,77333	47341
38,78400	47975
38,79467	48945
38,80533	50329
38,81600	52252
38,82667	54779
38,83733	57894
38,84800	61516
38,85867	65376
38,86933	69150
38,88000	72385
38,89067	74666
38,90133	75653
38,91200	75209
38,92267	73428
38,93333	70569
38,94400	67063
38,95467	63318
38,96533	59724
38,97600	56551
38,98667	53943
38,99733	51925
39,00800	50427
39,01867	49366
39,02933	48619
39,04000	48116
39,05067	47761
39,06133	47507
39,07200	47314
39,08267	47153
39,09333	47023
39,10400	46893
39,11467	46780
39,12533	46671
39,13600	46567
39,14667	46449
39,15733	46336
39,16800	46214
39,17867	46093
39,18933	45960
39,20000	45818
39,21067	45680
39,22133	45531
39,23200	45368
39,24267	45198
39,25333	45020
39,26400	44837
39,27467	44638
39,28533	44433
39,29600	44209
39,30667	43996
39,31733	43762
39,32800	43532
39,33867	43284
39,34933	43033
39,36000	42788
39,37067	42528
39,38133	42270
39,39200	42015
39,40267	41763
39,41333	41505
39,42400	41255
39,43467	41000
39,44533	40764
39,45600	40520
39,46667	40296
39,47733	40056
39,48800	39823
39,49867	39579
39,50933	39320
39,52000	39028
39,53067	38709
39,54133	38380
39,55200	38006
39,56267	37607
39,57333	37196
39,58400	36801
39,59467	36420
39,60533	36036
39,61600	35605
39,62667	35093
39,63733	34474
39,64800	33762
39,65867	32929
39,66933	31986
39,68000	30920
39,69067	29782
39,70133	28577
39,71200	27352
39,72267	26100
39,73333	24833
39,74400	23544
39,75467	22244
39,76533	20951
39,77600	19684
39,78667	18492
39,79733	17350
39,80800	16272
39,81867	15240
39,82933	14271
39,84000	13359
39,85067	12525
39,86133	11749
39,87200	11029
39,88267	10358
39,89333	9749
39,90400	9188
39,91467	8663
39,92533	8196
39,93600	7755
39,94667	7355
39,95733	6984
39,96800	6644
39,97867	6330
39,98933	6032
40,00000	5771
40,01067	5519
40,02133	5283
40,03200	5055
40,04267	4847
40,05333	4656
40,06400	4465
40,07467	4296
40,08533	4132
40,09600	3984
40,10667	3835
40,11733	3688
40,12800	3548
40,13867	3426
40,14933	3307
40,16000	3192
40,17067	3091
40,18133	2991
40,19200	2884
40,20267	2791
40,21333	2701
40,22400	2617
40,23467	2538
40,24533	2456
40,25600	2379
40,26667	2303
40,27733	2225
40,28800	2154
40,29867	2092
40,30933	2034
40,32000	1972
40,33067	1913
40,34133	1860
40,35200	1809
40,36267	1754
40,37333	1701
40,38400	1662
40,39467	1609
40,40533	1569
40,41600	1518
40,42667	1475
40,43733	1442
40,44800	1412
40,45867	1373
40,46933	1329
40,48000	1290
40,49067	1262
40,50133	1223
40,51200	1189
40,52267	1162
40,53333	1130
40,54400	1105
40,55467	1069
40,56533	1039
40,57600	1013
40,58667	986
40,59733	955
40,60800	932
40,61867	905
40,62933	872
40,64000	842
40,65067	818
40,66133	789
40,67200	759
40,68267	733
40,69333	709
40,70400	682
40,71467	658
40,72533	630
40,73600	604
40,74667	576
40,75733	551
40,76800	521
40,77867	493
40,78933	474
40,80000	448
40,81067	433
40,82133	396
40,83200	374
40,84267	356
40,85333	341
40,86400	315
40,87467	291
40,88533	263
40,89600	239
40,90667	213
40,91733	193
40,92800	171
40,93867	148
40,94933	131
40,96000	116
40,97067	102
40,98133	83
40,99200	68
41,00267	50
41,01333	38
41,02400	26
41,03467	7
41,04533	4
41,05600	-12
41,06667	-24
41,07733	-34
41,08800	-49
41,09867	-59
41,10933	-80
41,12000	-85
41,13067	-97
41,14133	-111
41,15200	-126
41,16267	-137
41,17333	-140
41,18400	-153
41,19467	-177
41,20533	-178
41,21600	-184
41,22667	-200
41,23733	-209
41,24800	-219
41,25867	-232
41,26933	-231
41,28000	-240
41,29067	-250
41,30133	-266
41,31200	-268
41,32267	-280
41,33333	-286
41,34400	-290
41,35467	-297
41,36533	-300
41,37600	-305
41,38667	-315
41,39733	-316
41,40800	-323
41,41867	-323
41,42933	-332
41,44000	-336
41,45067	-331
41,46133	-340
41,47200	-342
41,48267	-341
41,49333	-343
41,50400	-339
41,51467	-331
41,52533	-325
41,53600	-320
41,54667	-331
41,55733	-326
41,56800	-323
41,57867	-317
41,58933	-315
41,60000	-308
41,61067	-302
41,62133	-306
41,63200	-301
41,64267	-300
41,65333	-288
41,66400	-281
41,67467	-276
41,68533	-272
41,69600	-257
41,70667	-259
41,71733	-248
41,72800	-248
41,73867	-246
41,74933	-238
41,76000	-233
41,77067	-223
41,78133	-223
41,79200	-217
41,80267	-199
41,81333	-204
41,82400	-197
41,83467	-188
41,84533	-180
41,85600	-182
41,86667	-184
41,87733	-179
41,88800	-169
41,89867	-160
41,90933	-158
41,92000	-159
41,93067	-146
41,94133	-143
41,95200	-135
41,96267	-133
41,97333	-128
41,98400	-130
41,99467	-128
42,00533	-120
42,01600	-110
42,02667	-108
42,03733	-101
42,04800	-98
42,05867	-101
42,06933	-93
42,08000	-89
42,09067	-82
42,10133	-81
42,11200	-83
42,12267	-81
42,13333	-74
42,14400	-67
42,15467	-67
42,16533	-60
42,17600	-59
42,18667	-56
42,19733	-53
42,20800	-52
42,21867	-51
42,22933	-46
42,24000	-44
42,25067	-46
42,26133	-46
42,27200	-52
42,28267	-35
42,29333	-37
42,30400	-46
42,31467	-41
42,32533	-39
42,33600	-36
42,34667	-45
42,35733	-41
42,36800	-44
42,37867	-37
42,38933	-38
42,40000	-32
42,41067	-30
42,42133	-33
42,43200	-35
42,44267	-32
42,45333	-26
42,46400	-30
42,47467	-38
42,48533	-38
42,49600	-31
42,50667	-33
42,51733	-31
42,52800	-31
42,53867	-32
42,54933	-32
42,56000	-36
42,57067	-32
42,58133	-35
42,59200	-34
42,60267	-46
42,61333	-41
42,62400	-34
42,63467	-37
42,64533	-32
42,65600	-36
42,66667	-30
42,67733	-31
42,68800	-29
42,69867	-40
42,70933	-46
42,72000	-45
42,73067	-34
42,74133	-40
42,75200	-44
42,76267	-43
42,77333	-45
42,78400	-45
42,79467	-47
42,80533	-48
42,81600	-45
42,82667	-50
42,83733	-53
42,84800	-45
42,85867	-45
42,86933	-45
42,88000	-46
42,89067	-46
42,90133	-51
42,91200	-48
42,92267	-49
42,93333	-42
42,94400	-47
42,95467	-44
42,96533	-47
42,97600	-54
42,98667	-49
42,99733	-55
43,00800	-59
43,01867	-48
43,02933	-51
43,04000	-42
43,05067	-48
43,06133	-46
43,07200	-53
43,08267	-54
43,09333	-57
43,10400	-51
43,11467	-54
43,12533	-56
43,13600	-55
43,14667	-55
43,15733	-63
43,16800	-60
43,17867	-60
43,18933	-59
43,20000	-49
43,21067	-46
43,22133	-51
43,23200	-51
43,24267	-48
43,25333	-51
43,26400	-54
43,27467	-60
43,28533	-56
43,29600	-57
43,30667	-56
43,31733	-55
43,32800	-57
43,33867	-61
43,34933	-57
43,36000	-60
43,37067	-67
43,38133	-66
43,39200	-67
43,40267	-63
43,41333	-64
43,42400	-66
43,43467	-73
43,44533	-66
43,45600	-71
43,46667	-61
43,47733	-64
43,48800	-58
43,49867	-62
43,50933	-58
43,52000	-59
43,53067	-64
43,54133	-63
43,55200	-55
43,56267	-62
43,57333	-59
43,58400	-62
43,59467	-61
43,60533	-62
43,61600	-60
43,62667	-58
43,63733	-53
43,64800	-57
43,65867	-61
43,66933	-66
43,68000	-60
43,69067	-60
43,70133	-57
43,71200	-59
43,72267	-62
43,73333	-63
43,74400	-55
43,75467	-58
43,76533	-60
43,77600	-62
43,78667	-65
43,79733	-59
43,80800	-67
43,81867	-68
43,82933	-67
43,84000	-67
43,85067	-72
43,86133	-71
43,87200	-80
43,88267	-75
43,89333	-74
43,90400	-71
43,91467	-75
43,92533	-78
43,93600	-68
43,94667	-69
43,95733	-68
43,96800	-82
43,97867	-77
43,98933	-85
44,00000	-77
44,01067	-79
44,02133	-79
44,03200	-82
44,04267	-87
44,05333	-85
44,06400	-94
44,07467	-90
44,08533	-84
44,09600	-89
44,10667	-81
44,11733	-81
44,12800	-94
44,13867	-84
44,14933	-87
44,16000	-88
44,17067	-85
44,18133	-90
44,19200	-91
44,20267	-87
44,21333	-83
44,22400	-86
44,23467	-94
44,24533	-90
44,25600	-96
44,26667	-92
44,27733	-97
44,28800	-91
44,29867	-95
44,30933	-87
44,32000	-91
44,33067	-95
44,34133	-94
44,35200	-95
44,36267	-98
44,37333	-90
44,38400	-83
44,39467	-92
44,40533	-84
44,41600	-85
44,42667	-87
44,43733	-92
44,44800	-98
44,45867	-97
44,46933	-89
44,48000	-92
44,49067	-93
44,50133	-87
44,51200	-88
44,52267	-91
44,53333	-100
44,54400	-97
44,55467	-94
44,56533	-103
44,57600	-100
44,58667	-104
44,59733	-102
44,60800	-97
44,61867	-97
44,62933	-103
44,64000	-111
44,65067	-103
44,66133	-106
44,67200	-108
44,68267	-102
44,69333	-103
44,70400	-97
44,71467	-100
44,72533	-106
44,73600	-102
44,74667	-103
44,75733	-113
44,76800	-108
44,77867	-111
44,78933	-102
44,80000	-100
44,81067	-109
44,82133	-107
44,83200	-104
44,84267	-106
44,85333	-102
44,86400	-103
44,87467	-108
44,88533	-107
44,89600	-109
44,90667	-109
44,91733	-112
44,92800	-117
44,93867	-110
44,94933	-112
44,96000	-104
44,97067	-105
44,98133	-102
44,99200	-102
45,00267	-114
45,01333	-117
45,02400	-111
45,03467	-115
45,04533	-106
45,05600	-110
45,06667	-110
45,07733	-107
45,08800	-103
45,09867	-102
45,10933	-104
45,12000	-99
45,13067	-106
45,14133	-101
45,15200	-105
45,16267	-99
45,17333	-110
45,18400	-106
45,19467	-102
45,20533	-110
45,21600	-105
45,22667	-110
45,23733	-105
45,24800	-101
45,25867	-102
45,26933	-108
45,28000	-104
45,29067	-109
45,30133	-105
45,31200	-110
45,32267	-119
45,33333	-123
45,34400	-119
45,35467	-121
45,36533	-117
45,37600	-115
45,38667	-115
45,39733	-114
45,40800	-114
45,41867	-120
45,42933	-119
45,44000	-121
45,45067	-109
45,46133	-118
45,47200	-118
45,48267	-113
45,49333	-112
45,50400	-113
45,51467	-114
45,52533	-111
45,53600	-112
45,54667	-117
45,55733	-122
45,56800	-121
45,57867	-121
45,58933	-121
45,60000	-114
45,61067	-118
45,62133	-116
45,63200	-119
45,64267	-117
45,65333	-118
45,66400	-117
45,67467	-113
45,68533	-112
45,69600	-111
45,70667	-114
45,71733	-113
45,72800	-116
45,73867	-118
45,74933	-113
45,76000	-111
45,77067	-121
45,78133	-110
45,79200	-110
45,80267	-117
45,81333	-121
45,82400	-115
45,83467	-107
45,84533	-113
45,85600	-117
45,86667	-118
45,87733	-114
45,88800	-116
45,89867	-114
45,90933	-118
45,92000	-116
45,93067	-117
45,94133	-117
45,95200	-115
45,96267	-116
45,97333	-117
45,98400	-111
45,99467	-112
46,00533	-110
46,01600	-109
46,02667	-107
46,03733	-114
46,04800	-113
46,05867	-113
46,06933	-109
46,08000	-111
46,09067	-118
46,10133	-121
46,11200	-116
46,12267	-117
46,13333	-117
46,14400	-118
46,15467	-117
46,16533	-120
46,17600	-115
46,18667	-116
46,19733	-110
46,20800	-118
46,21867	-120
46,22933	-123
46,24000	-124
46,25067	-122
46,26133	-122
46,27200	-122
46,28267	-129
46,29333	-130
46,30400	-130
46,31467	-125
46,32533	-122
46,33600	-124
46,34667	-132
46,35733	-132
46,36800	-127
46,37867	-126
46,38933	-119
46,40000	-124
46,41067	-119
46,42133	-120
46,43200	-124
46,44267	-118
46,45333	-122
46,46400	-118
46,47467	-122
46,48533	-118
46,49600	-123
46,50667	-125
46,51733	-123
46,52800	-121
46,53867	-121
46,54933	-129
46,56000	-134
46,57067	-130
46,58133	-135
46,59200	-137
46,60267	-136
46,61333	-131
46,62400	-126
46,63467	-128
46,64533	-127
46,65600	-124
46,66667	-133
46,67733	-124
46,68800	-123
46,69867	-128
46,70933	-135
46,72000	-133
46,73067	-132
46,74133	-129
46,75200	-139
46,76267	-132
46,77333	-131
46,78400	-130
46,79467	-130
46,80533	-125
46,81600	-124
46,82667	-130
46,83733	-131
46,84800	-128
46,85867	-124
46,86933	-117
46,88000	-126
46,89067	-127
46,90133	-129
46,91200	-128
46,92267	-127
46,93333	-125
46,94400	-131
46,95467	-124
46,96533	-124
46,97600	-124
46,98667	-125
46,99733	-137
47,00800	-127
47,01867	-129
47,02933	-133
47,04000	-135
47,05067	-132
47,06133	-134
47,07200	-137
47,08267	-140
47,09333	-133
47,10400	-130
47,11467	-140
47,12533	-145
47,13600	-143
47,14667	-139
47,15733	-145
47,16800	-140
47,17867	-134
47,18933	-139
47,20000	-137
47,21067	-137
47,22133	-135
47,23200	-142
47,24267	-140
47,25333	-143
47,26400	-144
47,27467	-150
47,28533	-150
47,29600	-145
47,30667	-142
47,31733	-144
47,32800	-140
47,33867	-140
47,34933	-146
47,36000	-146
47,37067	-151
47,38133	-149
47,39200	-144
47,40267	-146
47,41333	-150
47,42400	-152
47,43467	-144
47,44533	-144
47,45600	-150
47,46667	-153
47,47733	-147
47,48800	-150
47,49867	-149
47,50933	-148
47,52000	-148
47,53067	-147
47,54133	-146
47,55200	-148
47,56267	-147
47,57333	-143
47,58400	-145
47,59467	-151
47,60533	-148
47,61600	-154
47,62667	-148
47,63733	-151
47,64800	-142
47,65867	-141
47,66933	-143
47,68000	-143
47,69067	-146
47,70133	-153
47,71200	-149
47,72267	-147
47,73333	-150
47,74400	-150
47,75467	-150
47,76533	-145
47,77600	-147
47,78667	-148
47,79733	-147
47,80800	-148
47,81867	-155
47,82933	-150
47,84000	-150
47,85067	-145
47,86133	-145
47,87200	-141
47,88267	-144
47,89333	-155
47,90400	-154
47,91467	-156
47,92533	-150
47,93600	-153
47,94667	-146
47,95733	-148
47,96800	-157
47,97867	-155
47,98933	-154
48,00000	-152
48,01067	-162
48,02133	-157
48,03200	-162
48,04267	-158
48,05333	-156
48,06400	-153
48,07467	-165
48,08533	-160
48,09600	-158
48,10667	-161
48,11733	-169
48,12800	-162
48,13867	-161
48,14933	-163
48,16000	-167
48,17067	-163
48,18133	-161
48,19200	-162
48,20267	-159
48,21333	-167
48,22400	-158
48,23467	-161
48,24533	-156
48,25600	-158
48,26667	-161
48,27733	-160
48,28800	-159
48,29867	-168
48,30933	-158
48,32000	-161
48,33067	-161
48,34133	-167
48,35200	-163
48,36267	-176
48,37333	-159
48,38400	-157
48,39467	-165
48,40533	-168
48,41600	-163
48,42667	-169
48,43733	-169
48,44800	-174
48,45867	-172
48,46933	-175
48,48000	-172
48,49067	-170
48,50133	-162
48,51200	-170
48,52267	-165
48,53333	-162
48,54400	-160
48,55467	-162
48,56533	-168
48,57600	-175
48,58667	-173
48,59733	-162
48,60800	-162
48,61867	-167
48,62933	-169
48,64000	-173
48,65067	-170
48,66133	-177
48,67200	-184
48,68267	-179
48,69333	-180
48,70400	-179
48,71467	-176
48,72533	-175
48,73600	-175
48,74667	-171
48,75733	-171
48,76800	-162
48,77867	-162
48,78933	-165
48,80000	-167
48,81067	-168
48,82133	-170
48,83200	-174
48,84267	-176
48,85333	-173
48,86400	-172
48,87467	-167
48,88533	-171
48,89600	-170
48,90667	-170
48,91733	-169
48,92800	-177
48,93867	-180
48,94933	-173
48,96000	-172
48,97067	-167
48,98133	-172
48,99200	-173
49,00267	-172
49,01333	-169
49,02400	-167
49,03467	-175
49,04533	-175
49,05600	-178
49,06667	-181
49,07733	-182
49,08800	-181
49,09867	-181
49,10933	-179
49,12000	-180
49,13067	-181
49,14133	-181
49,15200	-184
49,16267	-178
49,17333	-190
49,18400	-186
49,19467	-185
49,20533	-182
49,21600	-183
49,22667	-180
49,23733	-174
49,24800	-178
49,25867	-176
49,26933	-177
49,28000	-174
49,29067	-176
49,30133	-174
49,31200	-176
49,32267	-169
49,33333	-174
49,34400	-184
49,35467	-183
49,36533	-180
49,37600	-183
49,38667	-185
49,39733	-182
49,40800	-185
49,41867	-179
49,42933	-184
49,44000	-180
49,45067	-173
49,46133	-179
49,47200	-184
49,48267	-184
49,49333	-183
49,50400	-181
49,51467	-177
49,52533	-176
49,53600	-188
49,54667	-189
49,55733	-185
49,56800	-184
49,57867	-184
49,58933	-183
49,60000	-188
49,61067	-185
49,62133	-192
49,63200	-191
49,64267	-183
49,65333	-182
49,66400	-184
49,67467	-190
49,68533	-194
49,69600	-191
49,70667	-192
49,71733	-193
49,72800	-182
49,73867	-183
49,74933	-189
49,76000	-193
49,77067	-193
49,78133	-187
49,79200	-194
49,80267	-192
49,81333	-184
49,82400	-187
49,83467	-194
49,84533	-195
49,85600	-199
49,86667	-198
49,87733	-195
49,88800	-188
49,89867	-190
49,90933	-186
49,92000	-191
49,93067	-186
49,94133	-190
49,95200	-187
49,96267	-187
49,97333	-186
49,98400	-186
49,99467	-188
50,00533	-186


