[Header]
Application Name	LabSolutions
Version	5.73
Data File Name	C:\Users\Public\DADOS\Ricardo borges\RMBorges\26.02.25\CHLOGENIL ACID.lcd
Output Date	26/02/2025
Output Time	18:39:08

[File Information]
Type	Data File
Generated	26/02/2025 17:48:41
Generated by	System Administrator
Modified	26/02/2025 18:39:07
Modified by	System Administrator

[Sample Information]
Operator Name	System Administrator
Acquired	26/02/2025 17:49:04
Sample Type	0:Unknown
Level	0
Sample Name	CHLOROGENIL ACID
Sample ID	CHLOROGENIL ACID
ISTD Amount1	1
ISTD Amount2	1
ISTD Amount3	1
ISTD Amount4	1
ISTD Amount5	1
ISTD Amount6	1
ISTD Amount7	1
ISTD Amount8	1
ISTD Amount9	1
ISTD Amount10	1
ISTD Amount11	1
ISTD Amount12	1
ISTD Amount13	1
ISTD Amount14	1
ISTD Amount15	1
ISTD Amount16	1
ISTD Amount17	1
ISTD Amount18	1
ISTD Amount19	1
ISTD Amount20	1
ISTD Amount21	1
ISTD Amount22	1
ISTD Amount23	1
ISTD Amount24	1
ISTD Amount25	1
ISTD Amount26	1
ISTD Amount27	1
ISTD Amount28	1
ISTD Amount29	1
ISTD Amount30	1
ISTD Amount31	1
ISTD Amount32	1
Sample Amount	1
Dilution Factor	1
Vial#	7
Injection Volume	10

[Original Files]
Data File	C:\Users\Public\DADOS\Ricardo borges\RMBorges\26.02.25\CHLOGENIL ACID.lcd
Method File	C:\Users\Public\MÉTODOS\MÉTODOS HPLC AUTOMÁTICO\RICARDO BORGES\RMBorges\sciffee\experimental 1 - pool.lcm
Batch File	C:\Users\Public\DADOS\Ricardo borges\RMBorges\26.02.25\BATCH_RM_MIX POOL_26.02.2025.lcb
Report Format File	C:\LabSolutions\System\Default.lsr

[File Description]


[Configuration]
Instrument Name	HPLC analítico (automático)
Instrument #	1
Line #	1
# of Detectors	1
Detector ID	PDA
Detector Name	PDA
# of Channels	1

[Peak Table(PDA-Ch1)]
# of Peaks	18
Peak#	R.Time	I.Time	F.Time	Area	Height	A/H	Conc.	Mark	ID#	Name	k'	Plate #	Plate Ht.	Tailing	Resolution	Sep.Factor	Area Ratio	Height Ratio	Conc. %	Norm Conc.
1	1,671	1,525	1,835	98395	17027	5,779	0,000	   			0,000	1603	93,569	1,112	0,000	0,000	0	0	0,000	0,000
2	10,496	10,240	10,645	3384	291	11,647	0,000	   			5,281	17333	8,654	0,825	36,327	0,000	0	0	0,000	0,000
3	11,217	10,827	12,075	4683743	400600	11,692	0,000	   			5,712	20023	7,491	1,144	2,268	1,082	0	0	0,000	0,000
4	14,684	14,464	14,827	1912	175	10,910	0,000	   			7,787	35575	4,216	0,850	11,034	1,363	0	0	0,000	0,000
5	15,715	15,531	15,925	6224	605	10,283	0,000	   			8,404	48275	3,107	1,088	3,451	1,079	0	0	0,000	0,000
6	16,965	16,779	17,141	4452	474	9,398	0,000	   			9,152	64604	2,322	0,992	4,520	1,089	0	0	0,000	0,000
7	26,997	25,739	27,168	4264	93	45,706	0,000	   			15,155	14879	10,081	0,000	17,413	1,656	0	0	0,000	0,000
8	30,165	29,909	30,421	2190	170	12,853	0,000	 V 			17,051	128897	1,164	0,895	5,188	1,125	0	0	0,000	0,000
9	35,074	32,875	35,413	1388480	119824	11,588	0,000	   			19,988	635070	0,236	0,000	19,170	1,172	0	0	0,000	0,000
10	35,489	35,413	35,563	162844	22352	7,286	0,000	 V 			20,237	156954	0,956	0,000	1,553	1,012	0	0	0,000	0,000
11	35,597	35,563	35,733	135245	16694	8,102	0,000	 V 			20,301	29548	5,077	0,000	0,181	1,003	0	0	0,000	0,000
12	35,854	35,733	35,979	160755	12527	12,833	0,000	 V 			20,455	33501	4,478	0,000	0,319	1,008	0	0	0,000	0,000
13	36,036	35,979	36,096	61928	8976	6,899	0,000	 V 			20,564	0	0,000	0,000	0,000	1,005	0	0	0,000	0,000
14	36,337	36,096	36,469	185070	9394	19,701	0,000	 V 			20,744	7216	20,787	0,000	0,000	1,009	0	0	0,000	0,000
15	36,788	36,469	36,939	139277	4823	28,878	0,000	 V 			21,014	0	0,000	0,000	0,000	1,013	0	0	0,000	0,000
16	37,036	36,939	37,152	37675	3769	9,996	0,000	 V 			21,163	67824	2,212	0,000	0,000	1,007	0	0	0,000	0,000
17	37,227	37,152	37,376	13573	1589	8,541	0,000	 V 			21,277	0	0,000	0,000	0,000	1,005	0	0	0,000	0,000
18	38,912	38,656	39,957	1075242	37232	28,879	0,000	   			22,285	332041	0,452	2,884	0,000	1,047	0	0	0,000	0,000

[Compound Results(PDA)]
# of IDs	0

[PDA Multi Chromatogram(Ch1)]
# of Points	      4690
Interval(msec)	640
Start Time(min)	0
End Time(min)	50,016
Intensity Units	mAU
Intensity Multiplier	1
Type	MultiChrom
Wavelength(nm)	254
Bandwidth(nm)	4
R.Time (min)	Intensity
0,00000	0
0,01067	0
0,02133	0
0,03200	0
0,04267	0
0,05333	0
0,06400	0
0,07467	0
0,08533	0
0,09600	0
0,10667	0
0,11733	-8
0,12800	-11
0,13867	-15
0,14933	-16
0,16000	-10
0,17067	-15
0,18133	-8
0,19200	-13
0,20267	-10
0,21333	-22
0,22400	-24
0,23467	-22
0,24533	-21
0,25600	-21
0,26667	-27
0,27733	-31
0,28800	-29
0,29867	-18
0,30933	-17
0,32000	-16
0,33067	-12
0,34133	-24
0,35200	-24
0,36267	-25
0,37333	-24
0,38400	-27
0,39467	-24
0,40533	-24
0,41600	-23
0,42667	-23
0,43733	-18
0,44800	-24
0,45867	-30
0,46933	-22
0,48000	-28
0,49067	-19
0,50133	-19
0,51200	-21
0,52267	-18
0,53333	-21
0,54400	-19
0,55467	-17
0,56533	-20
0,57600	-18
0,58667	-11
0,59733	-5
0,60800	-8
0,61867	-8
0,62933	-18
0,64000	-8
0,65067	-18
0,66133	-9
0,67200	-9
0,68267	-11
0,69333	-15
0,70400	-17
0,71467	-22
0,72533	-10
0,73600	-14
0,74667	-12
0,75733	-12
0,76800	-13
0,77867	-21
0,78933	-15
0,80000	-18
0,81067	-8
0,82133	-8
0,83200	-14
0,84267	-14
0,85333	-18
0,86400	-7
0,87467	-7
0,88533	-10
0,89600	-5
0,90667	-12
0,91733	-8
0,92800	-10
0,93867	-15
0,94933	-6
0,96000	-4
0,97067	-10
0,98133	-12
0,99200	-13
1,00267	-14
1,01333	-14
1,02400	-12
1,03467	-16
1,04533	-17
1,05600	-14
1,06667	-13
1,07733	-16
1,08800	-18
1,09867	-26
1,10933	-28
1,12000	-21
1,13067	-21
1,14133	-16
1,15200	-19
1,16267	-17
1,17333	-20
1,18400	-14
1,19467	-21
1,20533	-25
1,21600	-23
1,22667	-15
1,23733	-14
1,24800	-21
1,25867	-20
1,26933	-12
1,28000	-11
1,29067	-12
1,30133	-12
1,31200	-15
1,32267	-17
1,33333	-19
1,34400	-11
1,35467	-8
1,36533	-15
1,37600	-18
1,38667	-13
1,39733	-14
1,40800	-15
1,41867	-13
1,42933	-13
1,44000	-10
1,45067	-11
1,46133	-6
1,47200	-7
1,48267	-11
1,49333	-5
1,50400	-7
1,51467	-3
1,52533	-11
1,53600	-4
1,54667	10
1,55733	30
1,56800	66
1,57867	93
1,58933	107
1,60000	105
1,61067	102
1,62133	100
1,63200	283
1,64267	3036
1,65333	9168
1,66400	13189
1,67467	13484
1,68533	12014
1,69600	10272
1,70667	8669
1,71733	6960
1,72800	4885
1,73867	2610
1,74933	365
1,76000	-1635
1,77067	-3236
1,78133	-4370
1,79200	-5095
1,80267	-5654
1,81333	-6295
1,82400	-6996
1,83467	-7505
1,84533	-7639
1,85600	-7319
1,86667	-6596
1,87733	-5569
1,88800	-4418
1,89867	-3313
1,90933	-2356
1,92000	-1610
1,93067	-1060
1,94133	-692
1,95200	-436
1,96267	-277
1,97333	-175
1,98400	-110
1,99467	-79
2,00533	-50
2,01600	-39
2,02667	-27
2,03733	-21
2,04800	-17
2,05867	-15
2,06933	-14
2,08000	-11
2,09067	-6
2,10133	-8
2,11200	-7
2,12267	-12
2,13333	-15
2,14400	-20
2,15467	-24
2,16533	-20
2,17600	-11
2,18667	-15
2,19733	-12
2,20800	-8
2,21867	-6
2,22933	-8
2,24000	-5
2,25067	3
2,26133	-4
2,27200	-3
2,28267	3
2,29333	6
2,30400	7
2,31467	0
2,32533	1
2,33600	2
2,34667	-5
2,35733	-4
2,36800	1
2,37867	6
2,38933	-3
2,40000	-5
2,41067	-0
2,42133	-10
2,43200	-6
2,44267	-11
2,45333	-12
2,46400	-3
2,47467	-1
2,48533	0
2,49600	6
2,50667	1
2,51733	-4
2,52800	-1
2,53867	0
2,54933	3
2,56000	-2
2,57067	-4
2,58133	-10
2,59200	-6
2,60267	0
2,61333	-3
2,62400	-9
2,63467	-7
2,64533	-29
2,65600	-69
2,66667	-131
2,67733	-204
2,68800	-295
2,69867	-386
2,70933	-463
2,72000	-517
2,73067	-550
2,74133	-556
2,75200	-527
2,76267	-477
2,77333	-427
2,78400	-367
2,79467	-300
2,80533	-233
2,81600	-173
2,82667	-122
2,83733	-89
2,84800	-57
2,85867	-30
2,86933	-12
2,88000	-8
2,89067	0
2,90133	1
2,91200	7
2,92267	10
2,93333	16
2,94400	10
2,95467	7
2,96533	4
2,97600	12
2,98667	14
2,99733	19
3,00800	16
3,01867	13
3,02933	9
3,04000	12
3,05067	14
3,06133	17
3,07200	17
3,08267	22
3,09333	27
3,10400	16
3,11467	25
3,12533	17
3,13600	20
3,14667	19
3,15733	16
3,16800	24
3,17867	17
3,18933	14
3,20000	17
3,21067	13
3,22133	14
3,23200	15
3,24267	13
3,25333	16
3,26400	13
3,27467	18
3,28533	13
3,29600	16
3,30667	16
3,31733	16
3,32800	18
3,33867	22
3,34933	18
3,36000	16
3,37067	20
3,38133	15
3,39200	16
3,40267	18
3,41333	19
3,42400	14
3,43467	22
3,44533	21
3,45600	29
3,46667	51
3,47733	73
3,48800	88
3,49867	86
3,50933	64
3,52000	44
3,53067	19
3,54133	-2
3,55200	-12
3,56267	-28
3,57333	-35
3,58400	-34
3,59467	-32
3,60533	-27
3,61600	-31
3,62667	-23
3,63733	-22
3,64800	-18
3,65867	-17
3,66933	-1
3,68000	2
3,69067	-1
3,70133	10
3,71200	16
3,72267	19
3,73333	33
3,74400	32
3,75467	40
3,76533	35
3,77600	38
3,78667	39
3,79733	40
3,80800	44
3,81867	34
3,82933	32
3,84000	41
3,85067	42
3,86133	47
3,87200	37
3,88267	41
3,89333	37
3,90400	40
3,91467	41
3,92533	36
3,93600	39
3,94667	31
3,95733	34
3,96800	30
3,97867	30
3,98933	34
4,00000	41
4,01067	43
4,02133	32
4,03200	42
4,04267	36
4,05333	29
4,06400	34
4,07467	34
4,08533	37
4,09600	37
4,10667	36
4,11733	29
4,12800	31
4,13867	36
4,14933	35
4,16000	28
4,17067	31
4,18133	35
4,19200	36
4,20267	42
4,21333	33
4,22400	30
4,23467	26
4,24533	35
4,25600	27
4,26667	31
4,27733	34
4,28800	31
4,29867	29
4,30933	25
4,32000	31
4,33067	30
4,34133	30
4,35200	32
4,36267	35
4,37333	36
4,38400	38
4,39467	35
4,40533	36
4,41600	36
4,42667	38
4,43733	38
4,44800	33
4,45867	45
4,46933	45
4,48000	52
4,49067	41
4,50133	41
4,51200	46
4,52267	50
4,53333	50
4,54400	51
4,55467	40
4,56533	39
4,57600	45
4,58667	50
4,59733	61
4,60800	64
4,61867	64
4,62933	60
4,64000	61
4,65067	62
4,66133	68
4,67200	63
4,68267	76
4,69333	78
4,70400	74
4,71467	76
4,72533	84
4,73600	73
4,74667	83
4,75733	79
4,76800	88
4,77867	96
4,78933	100
4,80000	107
4,81067	99
4,82133	102
4,83200	108
4,84267	115
4,85333	111
4,86400	114
4,87467	115
4,88533	122
4,89600	120
4,90667	125
4,91733	129
4,92800	133
4,93867	131
4,94933	128
4,96000	130
4,97067	137
4,98133	138
4,99200	142
5,00267	148
5,01333	154
5,02400	158
5,03467	155
5,04533	155
5,05600	161
5,06667	172
5,07733	167
5,08800	161
5,09867	172
5,10933	171
5,12000	182
5,13067	185
5,14133	185
5,15200	197
5,16267	198
5,17333	197
5,18400	203
5,19467	207
5,20533	210
5,21600	208
5,22667	215
5,23733	215
5,24800	212
5,25867	218
5,26933	227
5,28000	240
5,29067	244
5,30133	240
5,31200	236
5,32267	255
5,33333	243
5,34400	251
5,35467	260
5,36533	258
5,37600	264
5,38667	267
5,39733	283
5,40800	274
5,41867	276
5,42933	282
5,44000	289
5,45067	291
5,46133	296
5,47200	303
5,48267	305
5,49333	308
5,50400	304
5,51467	313
5,52533	312
5,53600	313
5,54667	322
5,55733	325
5,56800	333
5,57867	330
5,58933	338
5,60000	355
5,61067	351
5,62133	346
5,63200	347
5,64267	354
5,65333	356
5,66400	360
5,67467	363
5,68533	375
5,69600	368
5,70667	374
5,71733	378
5,72800	383
5,73867	385
5,74933	386
5,76000	381
5,77067	386
5,78133	395
5,79200	394
5,80267	402
5,81333	397
5,82400	407
5,83467	412
5,84533	415
5,85600	424
5,86667	432
5,87733	429
5,88800	432
5,89867	444
5,90933	447
5,92000	464
5,93067	466
5,94133	484
5,95200	494
5,96267	504
5,97333	509
5,98400	508
5,99467	514
6,00533	526
6,01600	536
6,02667	540
6,03733	541
6,04800	542
6,05867	549
6,06933	555
6,08000	555
6,09067	550
6,10133	551
6,11200	549
6,12267	539
6,13333	531
6,14400	529
6,15467	529
6,16533	525
6,17600	530
6,18667	521
6,19733	519
6,20800	512
6,21867	508
6,22933	509
6,24000	506
6,25067	524
6,26133	517
6,27200	515
6,28267	523
6,29333	527
6,30400	529
6,31467	528
6,32533	530
6,33600	531
6,34667	540
6,35733	544
6,36800	559
6,37867	562
6,38933	562
6,40000	569
6,41067	568
6,42133	572
6,43200	577
6,44267	583
6,45333	582
6,46400	594
6,47467	595
6,48533	586
6,49600	582
6,50667	586
6,51733	588
6,52800	590
6,53867	585
6,54933	583
6,56000	584
6,57067	588
6,58133	591
6,59200	594
6,60267	600
6,61333	605
6,62400	602
6,63467	605
6,64533	596
6,65600	595
6,66667	600
6,67733	603
6,68800	601
6,69867	602
6,70933	601
6,72000	608
6,73067	615
6,74133	616
6,75200	616
6,76267	625
6,77333	631
6,78400	640
6,79467	634
6,80533	639
6,81600	645
6,82667	645
6,83733	647
6,84800	651
6,85867	648
6,86933	652
6,88000	653
6,89067	657
6,90133	660
6,91200	669
6,92267	669
6,93333	667
6,94400	676
6,95467	671
6,96533	683
6,97600	682
6,98667	688
6,99733	692
7,00800	698
7,01867	695
7,02933	702
7,04000	695
7,05067	697
7,06133	714
7,07200	716
7,08267	716
7,09333	717
7,10400	719
7,11467	719
7,12533	721
7,13600	734
7,14667	739
7,15733	738
7,16800	732
7,17867	733
7,18933	737
7,20000	753
7,21067	751
7,22133	756
7,23200	756
7,24267	757
7,25333	752
7,26400	757
7,27467	754
7,28533	762
7,29600	771
7,30667	770
7,31733	773
7,32800	775
7,33867	772
7,34933	772
7,36000	778
7,37067	779
7,38133	779
7,39200	785
7,40267	786
7,41333	789
7,42400	791
7,43467	794
7,44533	804
7,45600	808
7,46667	807
7,47733	811
7,48800	814
7,49867	819
7,50933	823
7,52000	818
7,53067	818
7,54133	829
7,55200	833
7,56267	833
7,57333	842
7,58400	847
7,59467	842
7,60533	835
7,61600	844
7,62667	850
7,63733	860
7,64800	862
7,65867	864
7,66933	855
7,68000	858
7,69067	872
7,70133	869
7,71200	870
7,72267	872
7,73333	878
7,74400	877
7,75467	890
7,76533	888
7,77600	889
7,78667	890
7,79733	898
7,80800	900
7,81867	897
7,82933	902
7,84000	910
7,85067	916
7,86133	915
7,87200	915
7,88267	911
7,89333	915
7,90400	924
7,91467	940
7,92533	943
7,93600	941
7,94667	948
7,95733	950
7,96800	952
7,97867	951
7,98933	950
8,00000	948
8,01067	961
8,02133	965
8,03200	973
8,04267	977
8,05333	976
8,06400	978
8,07467	989
8,08533	988
8,09600	987
8,10667	991
8,11733	990
8,12800	989
8,13867	987
8,14933	997
8,16000	998
8,17067	1002
8,18133	997
8,19200	1005
8,20267	1007
8,21333	1008
8,22400	1013
8,23467	1010
8,24533	1013
8,25600	1025
8,26667	1020
8,27733	1025
8,28800	1020
8,29867	1028
8,30933	1035
8,32000	1037
8,33067	1042
8,34133	1039
8,35200	1043
8,36267	1041
8,37333	1045
8,38400	1056
8,39467	1051
8,40533	1059
8,41600	1061
8,42667	1072
8,43733	1069
8,44800	1077
8,45867	1077
8,46933	1080
8,48000	1078
8,49067	1084
8,50133	1090
8,51200	1096
8,52267	1090
8,53333	1098
8,54400	1102
8,55467	1110
8,56533	1107
8,57600	1112
8,58667	1117
8,59733	1116
8,60800	1121
8,61867	1126
8,62933	1131
8,64000	1127
8,65067	1136
8,66133	1133
8,67200	1137
8,68267	1145
8,69333	1147
8,70400	1150
8,71467	1157
8,72533	1159
8,73600	1164
8,74667	1165
8,75733	1166
8,76800	1165
8,77867	1166
8,78933	1175
8,80000	1180
8,81067	1184
8,82133	1191
8,83200	1195
8,84267	1200
8,85333	1216
8,86400	1213
8,87467	1210
8,88533	1217
8,89600	1222
8,90667	1226
8,91733	1232
8,92800	1236
8,93867	1242
8,94933	1252
8,96000	1258
8,97067	1255
8,98133	1273
8,99200	1276
9,00267	1283
9,01333	1297
9,02400	1295
9,03467	1295
9,04533	1293
9,05600	1297
9,06667	1296
9,07733	1294
9,08800	1304
9,09867	1309
9,10933	1305
9,12000	1299
9,13067	1296
9,14133	1304
9,15200	1306
9,16267	1292
9,17333	1294
9,18400	1285
9,19467	1290
9,20533	1288
9,21600	1286
9,22667	1295
9,23733	1292
9,24800	1299
9,25867	1298
9,26933	1303
9,28000	1296
9,29067	1302
9,30133	1302
9,31200	1305
9,32267	1312
9,33333	1317
9,34400	1315
9,35467	1322
9,36533	1322
9,37600	1321
9,38667	1320
9,39733	1326
9,40800	1332
9,41867	1343
9,42933	1342
9,44000	1340
9,45067	1343
9,46133	1345
9,47200	1350
9,48267	1357
9,49333	1361
9,50400	1369
9,51467	1375
9,52533	1371
9,53600	1374
9,54667	1386
9,55733	1392
9,56800	1391
9,57867	1395
9,58933	1399
9,60000	1403
9,61067	1406
9,62133	1418
9,63200	1424
9,64267	1423
9,65333	1422
9,66400	1427
9,67467	1431
9,68533	1432
9,69600	1431
9,70667	1432
9,71733	1440
9,72800	1443
9,73867	1450
9,74933	1449
9,76000	1456
9,77067	1460
9,78133	1465
9,79200	1466
9,80267	1462
9,81333	1472
9,82400	1480
9,83467	1486
9,84533	1488
9,85600	1493
9,86667	1500
9,87733	1498
9,88800	1509
9,89867	1511
9,90933	1518
9,92000	1520
9,93067	1530
9,94133	1526
9,95200	1541
9,96267	1543
9,97333	1543
9,98400	1544
9,99467	1550
10,00533	1551
10,01600	1559
10,02667	1560
10,03733	1560
10,04800	1562
10,05867	1568
10,06933	1568
10,08000	1567
10,09067	1561
10,10133	1575
10,11200	1571
10,12267	1572
10,13333	1573
10,14400	1575
10,15467	1574
10,16533	1578
10,17600	1587
10,18667	1588
10,19733	1588
10,20800	1592
10,21867	1603
10,22933	1610
10,24000	1606
10,25067	1613
10,26133	1621
10,27200	1626
10,28267	1639
10,29333	1643
10,30400	1660
10,31467	1668
10,32533	1687
10,33600	1708
10,34667	1731
10,35733	1753
10,36800	1772
10,37867	1791
10,38933	1817
10,40000	1854
10,41067	1884
10,42133	1913
10,43200	1929
10,44267	1953
10,45333	1976
10,46400	1989
10,47467	1997
10,48533	1999
10,49600	2004
10,50667	1998
10,51733	1981
10,52800	1965
10,53867	1941
10,54933	1916
10,56000	1905
10,57067	1885
10,58133	1863
10,59200	1847
10,60267	1833
10,61333	1816
10,62400	1803
10,63467	1786
10,64533	1776
10,65600	1780
10,66667	1779
10,67733	1783
10,68800	1789
10,69867	1793
10,70933	1793
10,72000	1785
10,73067	1791
10,74133	1793
10,75200	1793
10,76267	1795
10,77333	1810
10,78400	1809
10,79467	1812
10,80533	1810
10,81600	1814
10,82667	1817
10,83733	1827
10,84800	1832
10,85867	1840
10,86933	1842
10,88000	1858
10,89067	1876
10,90133	1892
10,91200	1915
10,92267	1941
10,93333	1993
10,94400	2082
10,95467	2230
10,96533	2474
10,97600	2864
10,98667	3506
10,99733	4530
11,00800	6141
11,01867	8607
11,02933	12276
11,04000	17586
11,05067	25078
11,06133	35355
11,07200	48964
11,08267	66515
11,09333	88270
11,10400	114505
11,11467	144838
11,12533	178782
11,13600	215090
11,14667	252500
11,15733	289123
11,16800	323226
11,17867	352897
11,18933	376634
11,20000	393192
11,21067	401911
11,22133	402600
11,23200	395544
11,24267	381429
11,25333	361377
11,26400	336530
11,27467	308424
11,28533	278208
11,29600	247335
11,30667	216746
11,31733	187541
11,32800	160261
11,33867	135481
11,34933	113354
11,36000	94084
11,37067	77532
11,38133	63573
11,39200	51938
11,40267	42337
11,41333	34497
11,42400	28140
11,43467	23023
11,44533	18899
11,45600	15598
11,46667	12956
11,47733	10858
11,48800	9178
11,49867	7863
11,50933	6814
11,52000	5983
11,53067	5331
11,54133	4823
11,55200	4415
11,56267	4101
11,57333	3854
11,58400	3648
11,59467	3494
11,60533	3374
11,61600	3264
11,62667	3180
11,63733	3108
11,64800	3044
11,65867	2990
11,66933	2948
11,68000	2903
11,69067	2866
11,70133	2830
11,71200	2809
11,72267	2772
11,73333	2744
11,74400	2718
11,75467	2697
11,76533	2688
11,77600	2663
11,78667	2648
11,79733	2628
11,80800	2607
11,81867	2592
11,82933	2581
11,84000	2567
11,85067	2552
11,86133	2542
11,87200	2533
11,88267	2519
11,89333	2513
11,90400	2495
11,91467	2482
11,92533	2486
11,93600	2469
11,94667	2463
11,95733	2458
11,96800	2453
11,97867	2449
11,98933	2440
12,00000	2436
12,01067	2431
12,02133	2419
12,03200	2420
12,04267	2423
12,05333	2414
12,06400	2409
12,07467	2402
12,08533	2404
12,09600	2405
12,10667	2404
12,11733	2407
12,12800	2409
12,13867	2416
12,14933	2422
12,16000	2424
12,17067	2445
12,18133	2459
12,19200	2464
12,20267	2476
12,21333	2489
12,22400	2493
12,23467	2505
12,24533	2509
12,25600	2520
12,26667	2516
12,27733	2520
12,28800	2508
12,29867	2505
12,30933	2493
12,32000	2492
12,33067	2487
12,34133	2465
12,35200	2457
12,36267	2450
12,37333	2445
12,38400	2432
12,39467	2418
12,40533	2422
12,41600	2414
12,42667	2413
12,43733	2405
12,44800	2402
12,45867	2402
12,46933	2399
12,48000	2396
12,49067	2399
12,50133	2400
12,51200	2397
12,52267	2398
12,53333	2397
12,54400	2402
12,55467	2414
12,56533	2415
12,57600	2413
12,58667	2418
12,59733	2419
12,60800	2425
12,61867	2427
12,62933	2420
12,64000	2421
12,65067	2430
12,66133	2427
12,67200	2430
12,68267	2435
12,69333	2442
12,70400	2445
12,71467	2452
12,72533	2448
12,73600	2444
12,74667	2449
12,75733	2450
12,76800	2450
12,77867	2453
12,78933	2449
12,80000	2449
12,81067	2452
12,82133	2457
12,83200	2460
12,84267	2449
12,85333	2456
12,86400	2466
12,87467	2473
12,88533	2475
12,89600	2478
12,90667	2475
12,91733	2476
12,92800	2476
12,93867	2482
12,94933	2491
12,96000	2491
12,97067	2499
12,98133	2502
12,99200	2512
13,00267	2505
13,01333	2507
13,02400	2521
13,03467	2520
13,04533	2532
13,05600	2530
13,06667	2531
13,07733	2535
13,08800	2539
13,09867	2545
13,10933	2546
13,12000	2547
13,13067	2551
13,14133	2560
13,15200	2555
13,16267	2567
13,17333	2579
13,18400	2583
13,19467	2595
13,20533	2606
13,21600	2611
13,22667	2614
13,23733	2626
13,24800	2647
13,25867	2653
13,26933	2653
13,28000	2668
13,29067	2669
13,30133	2665
13,31200	2668
13,32267	2666
13,33333	2663
13,34400	2661
13,35467	2655
13,36533	2649
13,37600	2650
13,38667	2644
13,39733	2650
13,40800	2656
13,41867	2650
13,42933	2648
13,44000	2653
13,45067	2649
13,46133	2658
13,47200	2658
13,48267	2660
13,49333	2661
13,50400	2671
13,51467	2671
13,52533	2667
13,53600	2684
13,54667	2685
13,55733	2694
13,56800	2698
13,57867	2710
13,58933	2710
13,60000	2716
13,61067	2733
13,62133	2738
13,63200	2760
13,64267	2751
13,65333	2754
13,66400	2762
13,67467	2766
13,68533	2786
13,69600	2780
13,70667	2788
13,71733	2800
13,72800	2795
13,73867	2804
13,74933	2804
13,76000	2820
13,77067	2815
13,78133	2815
13,79200	2823
13,80267	2818
13,81333	2829
13,82400	2826
13,83467	2830
13,84533	2831
13,85600	2825
13,86667	2828
13,87733	2829
13,88800	2835
13,89867	2841
13,90933	2832
13,92000	2844
13,93067	2845
13,94133	2848
13,95200	2843
13,96267	2847
13,97333	2860
13,98400	2866
13,99467	2869
14,00533	2870
14,01600	2866
14,02667	2874
14,03733	2875
14,04800	2884
14,05867	2882
14,06933	2888
14,08000	2886
14,09067	2901
14,10133	2897
14,11200	2905
14,12267	2917
14,13333	2920
14,14400	2916
14,15467	2922
14,16533	2923
14,17600	2933
14,18667	2939
14,19733	2947
14,20800	2947
14,21867	2954
14,22933	2960
14,24000	2974
14,25067	2975
14,26133	2981
14,27200	2990
14,28267	3004
14,29333	2997
14,30400	3007
14,31467	3000
14,32533	3008
14,33600	3015
14,34667	3010
14,35733	3017
14,36800	3019
14,37867	3020
14,38933	3022
14,40000	3024
14,41067	3031
14,42133	3034
14,43200	3037
14,44267	3045
14,45333	3047
14,46400	3054
14,47467	3063
14,48533	3071
14,49600	3080
14,50667	3086
14,51733	3098
14,52800	3108
14,53867	3122
14,54933	3146
14,56000	3162
14,57067	3179
14,58133	3199
14,59200	3223
14,60267	3247
14,61333	3267
14,62400	3286
14,63467	3299
14,64533	3314
14,65600	3321
14,66667	3336
14,67733	3339
14,68800	3342
14,69867	3329
14,70933	3327
14,72000	3323
14,73067	3309
14,74133	3294
14,75200	3299
14,76267	3287
14,77333	3271
14,78400	3261
14,79467	3252
14,80533	3251
14,81600	3243
14,82667	3239
14,83733	3253
14,84800	3260
14,85867	3262
14,86933	3259
14,88000	3265
14,89067	3265
14,90133	3272
14,91200	3277
14,92267	3285
14,93333	3285
14,94400	3288
14,95467	3294
14,96533	3298
14,97600	3299
14,98667	3297
14,99733	3308
15,00800	3315
15,01867	3320
15,02933	3327
15,04000	3331
15,05067	3333
15,06133	3344
15,07200	3347
15,08267	3350
15,09333	3354
15,10400	3361
15,11467	3369
15,12533	3368
15,13600	3372
15,14667	3377
15,15733	3385
15,16800	3393
15,17867	3390
15,18933	3392
15,20000	3396
15,21067	3403
15,22133	3406
15,23200	3405
15,24267	3417
15,25333	3420
15,26400	3423
15,27467	3429
15,28533	3434
15,29600	3430
15,30667	3432
15,31733	3447
15,32800	3455
15,33867	3454
15,34933	3458
15,36000	3460
15,37067	3473
15,38133	3473
15,39200	3477
15,40267	3480
15,41333	3488
15,42400	3490
15,43467	3490
15,44533	3495
15,45600	3499
15,46667	3506
15,47733	3513
15,48800	3510
15,49867	3520
15,50933	3519
15,52000	3534
15,53067	3531
15,54133	3546
15,55200	3564
15,56267	3584
15,57333	3607
15,58400	3634
15,59467	3667
15,60533	3713
15,61600	3761
15,62667	3821
15,63733	3883
15,64800	3951
15,65867	4013
15,66933	4071
15,68000	4125
15,69067	4171
15,70133	4203
15,71200	4223
15,72267	4218
15,73333	4204
15,74400	4180
15,75467	4143
15,76533	4096
15,77600	4045
15,78667	4003
15,79733	3955
15,80800	3915
15,81867	3870
15,82933	3841
15,84000	3806
15,85067	3784
15,86133	3771
15,87200	3753
15,88267	3756
15,89333	3744
15,90400	3732
15,91467	3723
15,92533	3716
15,93600	3722
15,94667	3719
15,95733	3725
15,96800	3733
15,97867	3726
15,98933	3726
16,00000	3727
16,01067	3734
16,02133	3741
16,03200	3735
16,04267	3746
16,05333	3743
16,06400	3747
16,07467	3751
16,08533	3755
16,09600	3759
16,10667	3765
16,11733	3765
16,12800	3776
16,13867	3779
16,14933	3787
16,16000	3786
16,17067	3781
16,18133	3792
16,19200	3798
16,20267	3803
16,21333	3800
16,22400	3808
16,23467	3813
16,24533	3820
16,25600	3823
16,26667	3830
16,27733	3831
16,28800	3831
16,29867	3841
16,30933	3848
16,32000	3840
16,33067	3854
16,34133	3859
16,35200	3863
16,36267	3873
16,37333	3872
16,38400	3882
16,39467	3889
16,40533	3899
16,41600	3913
16,42667	3912
16,43733	3921
16,44800	3932
16,45867	3938
16,46933	3941
16,48000	3952
16,49067	3958
16,50133	3965
16,51200	3970
16,52267	3966
16,53333	3971
16,54400	3969
16,55467	3971
16,56533	3975
16,57600	3975
16,58667	3975
16,59733	3985
16,60800	3985
16,61867	3986
16,62933	3988
16,64000	3987
16,65067	3996
16,66133	3995
16,67200	3998
16,68267	3995
16,69333	4003
16,70400	4003
16,71467	4008
16,72533	4016
16,73600	4009
16,74667	4006
16,75733	4025
16,76800	4029
16,77867	4035
16,78933	4047
16,80000	4053
16,81067	4073
16,82133	4095
16,83200	4112
16,84267	4132
16,85333	4169
16,86400	4212
16,87467	4261
16,88533	4310
16,89600	4365
16,90667	4426
16,91733	4471
16,92800	4517
16,93867	4553
16,94933	4576
16,96000	4597
16,97067	4597
16,98133	4576
16,99200	4538
17,00267	4506
17,01333	4476
17,02400	4433
17,03467	4397
17,04533	4361
17,05600	4322
17,06667	4296
17,07733	4265
17,08800	4248
17,09867	4238
17,10933	4223
17,12000	4216
17,13067	4211
17,14133	4207
17,15200	4208
17,16267	4217
17,17333	4218
17,18400	4222
17,19467	4226
17,20533	4226
17,21600	4229
17,22667	4242
17,23733	4242
17,24800	4248
17,25867	4253
17,26933	4253
17,28000	4257
17,29067	4269
17,30133	4269
17,31200	4275
17,32267	4274
17,33333	4281
17,34400	4287
17,35467	4285
17,36533	4291
17,37600	4297
17,38667	4296
17,39733	4308
17,40800	4308
17,41867	4305
17,42933	4316
17,44000	4319
17,45067	4320
17,46133	4324
17,47200	4327
17,48267	4328
17,49333	4335
17,50400	4343
17,51467	4349
17,52533	4353
17,53600	4357
17,54667	4364
17,55733	4366
17,56800	4373
17,57867	4378
17,58933	4383
17,60000	4390
17,61067	4383
17,62133	4392
17,63200	4396
17,64267	4398
17,65333	4409
17,66400	4414
17,67467	4414
17,68533	4424
17,69600	4421
17,70667	4425
17,71733	4434
17,72800	4433
17,73867	4434
17,74933	4448
17,76000	4449
17,77067	4446
17,78133	4455
17,79200	4453
17,80267	4453
17,81333	4459
17,82400	4454
17,83467	4459
17,84533	4472
17,85600	4475
17,86667	4477
17,87733	4482
17,88800	4490
17,89867	4488
17,90933	4496
17,92000	4500
17,93067	4501
17,94133	4515
17,95200	4520
17,96267	4534
17,97333	4542
17,98400	4537
17,99467	4548
18,00533	4552
18,01600	4553
18,02667	4559
18,03733	4568
18,04800	4570
18,05867	4585
18,06933	4593
18,08000	4601
18,09067	4612
18,10133	4626
18,11200	4639
18,12267	4652
18,13333	4665
18,14400	4680
18,15467	4686
18,16533	4700
18,17600	4713
18,18667	4720
18,19733	4719
18,20800	4726
18,21867	4726
18,22933	4729
18,24000	4728
18,25067	4729
18,26133	4736
18,27200	4728
18,28267	4721
18,29333	4713
18,30400	4725
18,31467	4716
18,32533	4718
18,33600	4711
18,34667	4717
18,35733	4728
18,36800	4727
18,37867	4731
18,38933	4727
18,40000	4731
18,41067	4732
18,42133	4738
18,43200	4739
18,44267	4739
18,45333	4741
18,46400	4749
18,47467	4752
18,48533	4759
18,49600	4775
18,50667	4777
18,51733	4773
18,52800	4773
18,53867	4773
18,54933	4784
18,56000	4786
18,57067	4793
18,58133	4803
18,59200	4814
18,60267	4816
18,61333	4819
18,62400	4830
18,63467	4828
18,64533	4837
18,65600	4841
18,66667	4844
18,67733	4838
18,68800	4841
18,69867	4841
18,70933	4849
18,72000	4853
18,73067	4858
18,74133	4863
18,75200	4868
18,76267	4871
18,77333	4876
18,78400	4879
18,79467	4880
18,80533	4897
18,81600	4896
18,82667	4898
18,83733	4904
18,84800	4902
18,85867	4911
18,86933	4920
18,88000	4921
18,89067	4923
18,90133	4922
18,91200	4927
18,92267	4934
18,93333	4940
18,94400	4948
18,95467	4951
18,96533	4953
18,97600	4961
18,98667	4961
18,99733	4965
19,00800	4973
19,01867	4979
19,02933	4980
19,04000	4982
19,05067	4986
19,06133	4997
19,07200	5006
19,08267	5015
19,09333	5023
19,10400	5025
19,11467	5030
19,12533	5032
19,13600	5034
19,14667	5050
19,15733	5044
19,16800	5050
19,17867	5056
19,18933	5061
19,20000	5074
19,21067	5067
19,22133	5070
19,23200	5066
19,24267	5070
19,25333	5077
19,26400	5084
19,27467	5082
19,28533	5084
19,29600	5095
19,30667	5101
19,31733	5101
19,32800	5099
19,33867	5112
19,34933	5120
19,36000	5127
19,37067	5128
19,38133	5138
19,39200	5140
19,40267	5138
19,41333	5148
19,42400	5151
19,43467	5157
19,44533	5158
19,45600	5160
19,46667	5172
19,47733	5172
19,48800	5178
19,49867	5189
19,50933	5188
19,52000	5194
19,53067	5202
19,54133	5204
19,55200	5213
19,56267	5211
19,57333	5216
19,58400	5215
19,59467	5230
19,60533	5237
19,61600	5236
19,62667	5237
19,63733	5241
19,64800	5249
19,65867	5265
19,66933	5264
19,68000	5279
19,69067	5288
19,70133	5289
19,71200	5303
19,72267	5308
19,73333	5315
19,74400	5328
19,75467	5345
19,76533	5351
19,77600	5355
19,78667	5358
19,79733	5367
19,80800	5372
19,81867	5370
19,82933	5369
19,84000	5368
19,85067	5369
19,86133	5365
19,87200	5371
19,88267	5377
19,89333	5373
19,90400	5376
19,91467	5380
19,92533	5370
19,93600	5369
19,94667	5377
19,95733	5376
19,96800	5380
19,97867	5388
19,98933	5393
20,00000	5399
20,01067	5407
20,02133	5410
20,03200	5404
20,04267	5403
20,05333	5407
20,06400	5420
20,07467	5425
20,08533	5433
20,09600	5437
20,10667	5440
20,11733	5441
20,12800	5448
20,13867	5452
20,14933	5454
20,16000	5454
20,17067	5460
20,18133	5466
20,19200	5473
20,20267	5483
20,21333	5486
20,22400	5492
20,23467	5506
20,24533	5504
20,25600	5518
20,26667	5516
20,27733	5524
20,28800	5524
20,29867	5522
20,30933	5538
20,32000	5550
20,33067	5547
20,34133	5558
20,35200	5566
20,36267	5582
20,37333	5585
20,38400	5587
20,39467	5605
20,40533	5610
20,41600	5625
20,42667	5629
20,43733	5637
20,44800	5645
20,45867	5651
20,46933	5651
20,48000	5658
20,49067	5660
20,50133	5650
20,51200	5655
20,52267	5652
20,53333	5653
20,54400	5655
20,55467	5664
20,56533	5665
20,57600	5664
20,58667	5657
20,59733	5663
20,60800	5665
20,61867	5671
20,62933	5677
20,64000	5681
20,65067	5690
20,66133	5692
20,67200	5697
20,68267	5693
20,69333	5704
20,70400	5712
20,71467	5712
20,72533	5715
20,73600	5720
20,74667	5736
20,75733	5741
20,76800	5741
20,77867	5744
20,78933	5754
20,80000	5757
20,81067	5764
20,82133	5757
20,83200	5761
20,84267	5765
20,85333	5782
20,86400	5790
20,87467	5797
20,88533	5807
20,89600	5802
20,90667	5813
20,91733	5817
20,92800	5821
20,93867	5824
20,94933	5827
20,96000	5830
20,97067	5838
20,98133	5847
20,99200	5858
21,00267	5868
21,01333	5879
21,02400	5884
21,03467	5890
21,04533	5896
21,05600	5906
21,06667	5922
21,07733	5930
21,08800	5936
21,09867	5933
21,10933	5936
21,12000	5941
21,13067	5946
21,14133	5953
21,15200	5951
21,16267	5951
21,17333	5963
21,18400	5951
21,19467	5954
21,20533	5955
21,21600	5963
21,22667	5966
21,23733	5973
21,24800	5976
21,25867	5969
21,26933	5970
21,28000	5975
21,29067	5982
21,30133	5992
21,31200	6000
21,32267	6004
21,33333	6004
21,34400	6008
21,35467	6014
21,36533	6019
21,37600	6025
21,38667	6030
21,39733	6037
21,40800	6041
21,41867	6044
21,42933	6049
21,44000	6047
21,45067	6055
21,46133	6062
21,47200	6064
21,48267	6073
21,49333	6074
21,50400	6087
21,51467	6099
21,52533	6102
21,53600	6104
21,54667	6102
21,55733	6109
21,56800	6109
21,57867	6122
21,58933	6122
21,60000	6132
21,61067	6133
21,62133	6136
21,63200	6140
21,64267	6146
21,65333	6151
21,66400	6156
21,67467	6167
21,68533	6182
21,69600	6181
21,70667	6182
21,71733	6187
21,72800	6190
21,73867	6190
21,74933	6200
21,76000	6210
21,77067	6214
21,78133	6219
21,79200	6223
21,80267	6234
21,81333	6234
21,82400	6243
21,83467	6244
21,84533	6249
21,85600	6257
21,86667	6263
21,87733	6265
21,88800	6269
21,89867	6268
21,90933	6277
21,92000	6291
21,93067	6285
21,94133	6293
21,95200	6299
21,96267	6304
21,97333	6306
21,98400	6313
21,99467	6318
22,00533	6319
22,01600	6328
22,02667	6340
22,03733	6342
22,04800	6348
22,05867	6338
22,06933	6349
22,08000	6360
22,09067	6368
22,10133	6368
22,11200	6370
22,12267	6376
22,13333	6381
22,14400	6390
22,15467	6395
22,16533	6403
22,17600	6403
22,18667	6404
22,19733	6411
22,20800	6424
22,21867	6433
22,22933	6434
22,24000	6438
22,25067	6438
22,26133	6446
22,27200	6451
22,28267	6465
22,29333	6460
22,30400	6477
22,31467	6479
22,32533	6482
22,33600	6481
22,34667	6497
22,35733	6500
22,36800	6491
22,37867	6504
22,38933	6510
22,40000	6511
22,41067	6527
22,42133	6526
22,43200	6523
22,44267	6527
22,45333	6526
22,46400	6543
22,47467	6551
22,48533	6548
22,49600	6555
22,50667	6574
22,51733	6577
22,52800	6584
22,53867	6591
22,54933	6598
22,56000	6609
22,57067	6607
22,58133	6622
22,59200	6621
22,60267	6625
22,61333	6633
22,62400	6638
22,63467	6641
22,64533	6644
22,65600	6657
22,66667	6659
22,67733	6667
22,68800	6677
22,69867	6690
22,70933	6690
22,72000	6696
22,73067	6717
22,74133	6728
22,75200	6737
22,76267	6752
22,77333	6762
22,78400	6783
22,79467	6798
22,80533	6798
22,81600	6815
22,82667	6828
22,83733	6837
22,84800	6835
22,85867	6836
22,86933	6835
22,88000	6836
22,89067	6837
22,90133	6841
22,91200	6829
22,92267	6830
22,93333	6823
22,94400	6830
22,95467	6843
22,96533	6837
22,97600	6834
22,98667	6836
22,99733	6837
23,00800	6844
23,01867	6846
23,02933	6846
23,04000	6848
23,05067	6854
23,06133	6861
23,07200	6866
23,08267	6868
23,09333	6872
23,10400	6874
23,11467	6884
23,12533	6891
23,13600	6899
23,14667	6903
23,15733	6899
23,16800	6907
23,17867	6910
23,18933	6920
23,20000	6927
23,21067	6928
23,22133	6935
23,23200	6943
23,24267	6948
23,25333	6951
23,26400	6960
23,27467	6967
23,28533	6966
23,29600	6986
23,30667	6986
23,31733	6983
23,32800	6988
23,33867	6989
23,34933	6999
23,36000	7009
23,37067	7016
23,38133	7017
23,39200	7024
23,40267	7028
23,41333	7029
23,42400	7032
23,43467	7040
23,44533	7049
23,45600	7053
23,46667	7060
23,47733	7064
23,48800	7065
23,49867	7063
23,50933	7073
23,52000	7080
23,53067	7085
23,54133	7091
23,55200	7097
23,56267	7103
23,57333	7111
23,58400	7116
23,59467	7120
23,60533	7127
23,61600	7130
23,62667	7138
23,63733	7139
23,64800	7148
23,65867	7157
23,66933	7163
23,68000	7167
23,69067	7172
23,70133	7172
23,71200	7174
23,72267	7197
23,73333	7201
23,74400	7206
23,75467	7212
23,76533	7209
23,77600	7219
23,78667	7224
23,79733	7229
23,80800	7240
23,81867	7239
23,82933	7244
23,84000	7247
23,85067	7258
23,86133	7259
23,87200	7268
23,88267	7279
23,89333	7275
23,90400	7281
23,91467	7292
23,92533	7296
23,93600	7301
23,94667	7306
23,95733	7319
23,96800	7320
23,97867	7323
23,98933	7326
24,00000	7333
24,01067	7335
24,02133	7342
24,03200	7355
24,04267	7359
24,05333	7365
24,06400	7366
24,07467	7379
24,08533	7390
24,09600	7390
24,10667	7400
24,11733	7408
24,12800	7418
24,13867	7418
24,14933	7423
24,16000	7433
24,17067	7431
24,18133	7442
24,19200	7445
24,20267	7449
24,21333	7466
24,22400	7462
24,23467	7470
24,24533	7472
24,25600	7472
24,26667	7480
24,27733	7483
24,28800	7491
24,29867	7501
24,30933	7510
24,32000	7513
24,33067	7519
24,34133	7525
24,35200	7535
24,36267	7535
24,37333	7541
24,38400	7550
24,39467	7554
24,40533	7565
24,41600	7579
24,42667	7579
24,43733	7581
24,44800	7592
24,45867	7600
24,46933	7604
24,48000	7608
24,49067	7609
24,50133	7614
24,51200	7629
24,52267	7636
24,53333	7637
24,54400	7647
24,55467	7654
24,56533	7659
24,57600	7663
24,58667	7665
24,59733	7671
24,60800	7682
24,61867	7678
24,62933	7686
24,64000	7700
24,65067	7706
24,66133	7701
24,67200	7709
24,68267	7718
24,69333	7724
24,70400	7734
24,71467	7732
24,72533	7742
24,73600	7753
24,74667	7759
24,75733	7765
24,76800	7773
24,77867	7777
24,78933	7777
24,80000	7787
24,81067	7791
24,82133	7794
24,83200	7798
24,84267	7810
24,85333	7823
24,86400	7823
24,87467	7832
24,88533	7839
24,89600	7843
24,90667	7850
24,91733	7860
24,92800	7874
24,93867	7872
24,94933	7886
24,96000	7893
24,97067	7898
24,98133	7901
24,99200	7898
25,00267	7919
25,01333	7915
25,02400	7922
25,03467	7928
25,04533	7933
25,05600	7942
25,06667	7945
25,07733	7949
25,08800	7961
25,09867	7964
25,10933	7964
25,12000	7962
25,13067	7977
25,14133	7986
25,15200	7998
25,16267	8001
25,17333	8003
25,18400	8021
25,19467	8026
25,20533	8034
25,21600	8039
25,22667	8046
25,23733	8052
25,24800	8055
25,25867	8066
25,26933	8076
25,28000	8075
25,29067	8075
25,30133	8086
25,31200	8091
25,32267	8101
25,33333	8106
25,34400	8125
25,35467	8130
25,36533	8139
25,37600	8144
25,38667	8150
25,39733	8158
25,40800	8165
25,41867	8174
25,42933	8179
25,44000	8192
25,45067	8208
25,46133	8213
25,47200	8221
25,48267	8229
25,49333	8240
25,50400	8254
25,51467	8260
25,52533	8275
25,53600	8280
25,54667	8292
25,55733	8296
25,56800	8310
25,57867	8302
25,58933	8306
25,60000	8318
25,61067	8332
25,62133	8335
25,63200	8344
25,64267	8353
25,65333	8354
25,66400	8363
25,67467	8375
25,68533	8384
25,69600	8385
25,70667	8400
25,71733	8414
25,72800	8416
25,73867	8420
25,74933	8437
25,76000	8443
25,77067	8458
25,78133	8463
25,79200	8468
25,80267	8484
25,81333	8491
25,82400	8501
25,83467	8504
25,84533	8520
25,85600	8530
25,86667	8534
25,87733	8543
25,88800	8555
25,89867	8561
25,90933	8572
25,92000	8573
25,93067	8583
25,94133	8576
25,95200	8582
25,96267	8592
25,97333	8598
25,98400	8608
25,99467	8615
26,00533	8624
26,01600	8636
26,02667	8640
26,03733	8648
26,04800	8656
26,05867	8667
26,06933	8672
26,08000	8679
26,09067	8685
26,10133	8693
26,11200	8702
26,12267	8710
26,13333	8720
26,14400	8725
26,15467	8736
26,16533	8745
26,17600	8753
26,18667	8756
26,19733	8766
26,20800	8783
26,21867	8788
26,22933	8796
26,24000	8810
26,25067	8807
26,26133	8811
26,27200	8820
26,28267	8830
26,29333	8849
26,30400	8851
26,31467	8854
26,32533	8865
26,33600	8883
26,34667	8891
26,35733	8899
26,36800	8898
26,37867	8899
26,38933	8912
26,40000	8920
26,41067	8930
26,42133	8936
26,43200	8947
26,44267	8946
26,45333	8954
26,46400	8959
26,47467	8963
26,48533	8978
26,49600	8984
26,50667	8988
26,51733	8993
26,52800	9005
26,53867	9012
26,54933	9023
26,56000	9036
26,57067	9043
26,58133	9043
26,59200	9062
26,60267	9069
26,61333	9074
26,62400	9084
26,63467	9086
26,64533	9098
26,65600	9110
26,66667	9122
26,67733	9130
26,68800	9137
26,69867	9141
26,70933	9158
26,72000	9161
26,73067	9169
26,74133	9173
26,75200	9176
26,76267	9185
26,77333	9195
26,78400	9208
26,79467	9215
26,80533	9226
26,81600	9238
26,82667	9242
26,83733	9251
26,84800	9254
26,85867	9263
26,86933	9270
26,88000	9284
26,89067	9297
26,90133	9307
26,91200	9319
26,92267	9325
26,93333	9329
26,94400	9338
26,95467	9343
26,96533	9351
26,97600	9357
26,98667	9369
26,99733	9377
27,00800	9375
27,01867	9374
27,02933	9375
27,04000	9383
27,05067	9378
27,06133	9386
27,07200	9391
27,08267	9390
27,09333	9392
27,10400	9394
27,11467	9395
27,12533	9398
27,13600	9403
27,14667	9400
27,15733	9409
27,16800	9408
27,17867	9418
27,18933	9423
27,20000	9429
27,21067	9439
27,22133	9450
27,23200	9459
27,24267	9460
27,25333	9467
27,26400	9466
27,27467	9469
27,28533	9477
27,29600	9483
27,30667	9490
27,31733	9500
27,32800	9502
27,33867	9508
27,34933	9512
27,36000	9520
27,37067	9528
27,38133	9531
27,39200	9542
27,40267	9543
27,41333	9539
27,42400	9549
27,43467	9559
27,44533	9566
27,45600	9570
27,46667	9578
27,47733	9584
27,48800	9595
27,49867	9587
27,50933	9597
27,52000	9613
27,53067	9616
27,54133	9623
27,55200	9629
27,56267	9635
27,57333	9641
27,58400	9645
27,59467	9656
27,60533	9662
27,61600	9665
27,62667	9667
27,63733	9672
27,64800	9680
27,65867	9683
27,66933	9692
27,68000	9700
27,69067	9713
27,70133	9716
27,71200	9708
27,72267	9720
27,73333	9724
27,74400	9738
27,75467	9744
27,76533	9751
27,77600	9765
27,78667	9774
27,79733	9770
27,80800	9778
27,81867	9791
27,82933	9788
27,84000	9795
27,85067	9813
27,86133	9823
27,87200	9836
27,88267	9838
27,89333	9850
27,90400	9863
27,91467	9860
27,92533	9874
27,93600	9877
27,94667	9892
27,95733	9903
27,96800	9908
27,97867	9921
27,98933	9920
28,00000	9923
28,01067	9942
28,02133	9939
28,03200	9944
28,04267	9964
28,05333	9967
28,06400	9986
28,07467	9990
28,08533	10002
28,09600	10013
28,10667	10025
28,11733	10039
28,12800	10056
28,13867	10062
28,14933	10080
28,16000	10094
28,17067	10104
28,18133	10125
28,19200	10132
28,20267	10140
28,21333	10147
28,22400	10154
28,23467	10161
28,24533	10159
28,25600	10163
28,26667	10176
28,27733	10174
28,28800	10185
28,29867	10199
28,30933	10211
28,32000	10214
28,33067	10219
28,34133	10225
28,35200	10245
28,36267	10256
28,37333	10265
28,38400	10281
28,39467	10287
28,40533	10296
28,41600	10295
28,42667	10307
28,43733	10318
28,44800	10324
28,45867	10335
28,46933	10344
28,48000	10349
28,49067	10358
28,50133	10368
28,51200	10377
28,52267	10385
28,53333	10394
28,54400	10401
28,55467	10394
28,56533	10404
28,57600	10410
28,58667	10414
28,59733	10420
28,60800	10439
28,61867	10443
28,62933	10450
28,64000	10454
28,65067	10461
28,66133	10457
28,67200	10463
28,68267	10468
28,69333	10475
28,70400	10478
28,71467	10492
28,72533	10487
28,73600	10497
28,74667	10498
28,75733	10510
28,76800	10513
28,77867	10510
28,78933	10513
28,80000	10520
28,81067	10521
28,82133	10525
28,83200	10528
28,84267	10541
28,85333	10547
28,86400	10562
28,87467	10560
28,88533	10572
28,89600	10575
28,90667	10574
28,91733	10582
28,92800	10585
28,93867	10588
28,94933	10589
28,96000	10597
28,97067	10602
28,98133	10611
28,99200	10616
29,00267	10629
29,01333	10632
29,02400	10644
29,03467	10646
29,04533	10647
29,05600	10655
29,06667	10669
29,07733	10677
29,08800	10680
29,09867	10684
29,10933	10693
29,12000	10701
29,13067	10709
29,14133	10715
29,15200	10726
29,16267	10730
29,17333	10736
29,18400	10739
29,19467	10744
29,20533	10761
29,21600	10773
29,22667	10785
29,23733	10799
29,24800	10799
29,25867	10812
29,26933	10828
29,28000	10841
29,29067	10849
29,30133	10855
29,31200	10863
29,32267	10873
29,33333	10881
29,34400	10893
29,35467	10904
29,36533	10916
29,37600	10924
29,38667	10936
29,39733	10939
29,40800	10946
29,41867	10959
29,42933	10964
29,44000	10968
29,45067	10973
29,46133	10981
29,47200	10994
29,48267	11007
29,49333	11015
29,50400	11014
29,51467	11028
29,52533	11034
29,53600	11040
29,54667	11057
29,55733	11069
29,56800	11079
29,57867	11096
29,58933	11106
29,60000	11121
29,61067	11138
29,62133	11148
29,63200	11150
29,64267	11156
29,65333	11172
29,66400	11181
29,67467	11175
29,68533	11181
29,69600	11191
29,70667	11196
29,71733	11200
29,72800	11205
29,73867	11196
29,74933	11198
29,76000	11208
29,77067	11207
29,78133	11214
29,79200	11215
29,80267	11221
29,81333	11229
29,82400	11231
29,83467	11235
29,84533	11242
29,85600	11250
29,86667	11262
29,87733	11268
29,88800	11274
29,89867	11279
29,90933	11286
29,92000	11298
29,93067	11301
29,94133	11311
29,95200	11325
29,96267	11338
29,97333	11356
29,98400	11362
29,99467	11373
30,00533	11387
30,01600	11395
30,02667	11409
30,03733	11429
30,04800	11446
30,05867	11463
30,06933	11487
30,08000	11506
30,09067	11520
30,10133	11540
30,11200	11559
30,12267	11574
30,13333	11591
30,14400	11605
30,15467	11620
30,16533	11630
30,17600	11638
30,18667	11638
30,19733	11637
30,20800	11637
30,21867	11633
30,22933	11625
30,24000	11621
30,25067	11614
30,26133	11603
30,27200	11599
30,28267	11587
30,29333	11587
30,30400	11586
30,31467	11590
30,32533	11581
30,33600	11586
30,34667	11590
30,35733	11593
30,36800	11601
30,37867	11610
30,38933	11618
30,40000	11626
30,41067	11629
30,42133	11636
30,43200	11649
30,44267	11657
30,45333	11668
30,46400	11683
30,47467	11693
30,48533	11706
30,49600	11720
30,50667	11728
30,51733	11742
30,52800	11747
30,53867	11755
30,54933	11771
30,56000	11782
30,57067	11787
30,58133	11800
30,59200	11813
30,60267	11823
30,61333	11835
30,62400	11847
30,63467	11854
30,64533	11862
30,65600	11875
30,66667	11884
30,67733	11896
30,68800	11904
30,69867	11908
30,70933	11909
30,72000	11923
30,73067	11931
30,74133	11935
30,75200	11944
30,76267	11950
30,77333	11961
30,78400	11978
30,79467	11990
30,80533	12002
30,81600	12004
30,82667	12017
30,83733	12025
30,84800	12030
30,85867	12045
30,86933	12058
30,88000	12066
30,89067	12078
30,90133	12077
30,91200	12081
30,92267	12092
30,93333	12111
30,94400	12116
30,95467	12121
30,96533	12132
30,97600	12149
30,98667	12149
30,99733	12157
31,00800	12159
31,01867	12179
31,02933	12182
31,04000	12188
31,05067	12193
31,06133	12195
31,07200	12208
31,08267	12210
31,09333	12224
31,10400	12233
31,11467	12244
31,12533	12250
31,13600	12258
31,14667	12264
31,15733	12273
31,16800	12286
31,17867	12289
31,18933	12298
31,20000	12303
31,21067	12310
31,22133	12315
31,23200	12327
31,24267	12333
31,25333	12341
31,26400	12345
31,27467	12350
31,28533	12354
31,29600	12366
31,30667	12370
31,31733	12375
31,32800	12383
31,33867	12395
31,34933	12405
31,36000	12413
31,37067	12420
31,38133	12419
31,39200	12423
31,40267	12432
31,41333	12439
31,42400	12451
31,43467	12460
31,44533	12464
31,45600	12463
31,46667	12479
31,47733	12492
31,48800	12500
31,49867	12497
31,50933	12511
31,52000	12524
31,53067	12535
31,54133	12539
31,55200	12543
31,56267	12558
31,57333	12565
31,58400	12566
31,59467	12581
31,60533	12594
31,61600	12600
31,62667	12609
31,63733	12616
31,64800	12630
31,65867	12627
31,66933	12636
31,68000	12645
31,69067	12649
31,70133	12657
31,71200	12665
31,72267	12668
31,73333	12675
31,74400	12687
31,75467	12688
31,76533	12693
31,77600	12706
31,78667	12713
31,79733	12717
31,80800	12721
31,81867	12720
31,82933	12729
31,84000	12738
31,85067	12740
31,86133	12744
31,87200	12754
31,88267	12752
31,89333	12763
31,90400	12772
31,91467	12777
31,92533	12776
31,93600	12788
31,94667	12794
31,95733	12805
31,96800	12811
31,97867	12820
31,98933	12833
32,00000	12829
32,01067	12835
32,02133	12849
32,03200	12852
32,04267	12862
32,05333	12869
32,06400	12876
32,07467	12875
32,08533	12877
32,09600	12883
32,10667	12890
32,11733	12897
32,12800	12911
32,13867	12914
32,14933	12918
32,16000	12929
32,17067	12934
32,18133	12945
32,19200	12946
32,20267	12954
32,21333	12966
32,22400	12976
32,23467	12972
32,24533	12978
32,25600	12994
32,26667	12997
32,27733	13007
32,28800	13010
32,29867	13033
32,30933	13041
32,32000	13055
32,33067	13069
32,34133	13073
32,35200	13079
32,36267	13101
32,37333	13111
32,38400	13123
32,39467	13133
32,40533	13149
32,41600	13161
32,42667	13177
32,43733	13190
32,44800	13210
32,45867	13224
32,46933	13239
32,48000	13259
32,49067	13277
32,50133	13299
32,51200	13318
32,52267	13346
32,53333	13369
32,54400	13394
32,55467	13422
32,56533	13444
32,57600	13460
32,58667	13490
32,59733	13524
32,60800	13545
32,61867	13575
32,62933	13604
32,64000	13644
32,65067	13664
32,66133	13698
32,67200	13742
32,68267	13776
32,69333	13809
32,70400	13852
32,71467	13895
32,72533	13933
32,73600	13978
32,74667	14019
32,75733	14065
32,76800	14110
32,77867	14173
32,78933	14215
32,80000	14273
32,81067	14322
32,82133	14387
32,83200	14435
32,84267	14505
32,85333	14572
32,86400	14643
32,87467	14713
32,88533	14795
32,89600	14871
32,90667	14961
32,91733	15053
32,92800	15155
32,93867	15256
32,94933	15369
32,96000	15474
32,97067	15583
32,98133	15688
32,99200	15790
33,00267	15891
33,01333	15993
33,02400	16096
33,03467	16185
33,04533	16272
33,05600	16353
33,06667	16438
33,07733	16528
33,08800	16623
33,09867	16712
33,10933	16797
33,12000	16879
33,13067	16966
33,14133	17055
33,15200	17143
33,16267	17245
33,17333	17345
33,18400	17443
33,19467	17539
33,20533	17627
33,21600	17726
33,22667	17819
33,23733	17921
33,24800	18018
33,25867	18117
33,26933	18214
33,28000	18311
33,29067	18411
33,30133	18510
33,31200	18590
33,32267	18680
33,33333	18761
33,34400	18847
33,35467	18936
33,36533	19013
33,37600	19102
33,38667	19184
33,39733	19269
33,40800	19357
33,41867	19447
33,42933	19532
33,44000	19628
33,45067	19722
33,46133	19827
33,47200	19917
33,48267	20017
33,49333	20120
33,50400	20218
33,51467	20309
33,52533	20402
33,53600	20496
33,54667	20596
33,55733	20693
33,56800	20793
33,57867	20895
33,58933	20992
33,60000	21099
33,61067	21204
33,62133	21313
33,63200	21425
33,64267	21539
33,65333	21656
33,66400	21779
33,67467	21880
33,68533	21995
33,69600	22112
33,70667	22217
33,71733	22320
33,72800	22434
33,73867	22528
33,74933	22637
33,76000	22739
33,77067	22855
33,78133	22959
33,79200	23061
33,80267	23159
33,81333	23261
33,82400	23367
33,83467	23468
33,84533	23581
33,85600	23687
33,86667	23813
33,87733	23935
33,88800	24055
33,89867	24175
33,90933	24305
33,92000	24406
33,93067	24517
33,94133	24621
33,95200	24730
33,96267	24832
33,97333	24947
33,98400	25056
33,99467	25168
34,00533	25276
34,01600	25394
34,02667	25527
34,03733	25665
34,04800	25838
34,05867	26017
34,06933	26222
34,08000	26401
34,09067	26577
34,10133	26710
34,11200	26796
34,12267	26858
34,13333	26905
34,14400	26976
34,15467	27054
34,16533	27147
34,17600	27258
34,18667	27381
34,19733	27534
34,20800	27699
34,21867	27891
34,22933	28107
34,24000	28332
34,25067	28574
34,26133	28812
34,27200	29051
34,28267	29270
34,29333	29466
34,30400	29612
34,31467	29729
34,32533	29830
34,33600	29906
34,34667	29959
34,35733	30035
34,36800	30138
34,37867	30251
34,38933	30395
34,40000	30572
34,41067	30785
34,42133	31059
34,43200	31360
34,44267	31668
34,45333	31951
34,46400	32181
34,47467	32356
34,48533	32461
34,49600	32521
34,50667	32536
34,51733	32549
34,52800	32558
34,53867	32583
34,54933	32604
34,56000	32621
34,57067	32655
34,58133	32690
34,59200	32731
34,60267	32782
34,61333	32866
34,62400	32955
34,63467	33036
34,64533	33118
34,65600	33197
34,66667	33259
34,67733	33311
34,68800	33376
34,69867	33453
34,70933	33525
34,72000	33609
34,73067	33690
34,74133	33778
34,75200	33894
34,76267	34009
34,77333	34147
34,78400	34297
34,79467	34466
34,80533	34615
34,81600	34753
34,82667	34891
34,83733	35033
34,84800	35195
34,85867	35361
34,86933	35509
34,88000	35628
34,89067	35707
34,90133	35780
34,91200	35867
34,92267	35948
34,93333	36052
34,94400	36176
34,95467	36332
34,96533	36574
34,97600	37093
34,98667	38393
34,99733	41545
35,00800	48022
35,01867	59368
35,02933	76154
35,04000	97727
35,05067	121016
35,06133	140454
35,07200	149563
35,08267	145630
35,09333	131961
35,10400	114660
35,11467	98536
35,12533	85667
35,13600	76108
35,14667	69284
35,15733	64550
35,16800	61365
35,17867	59222
35,18933	57613
35,20000	56188
35,21067	54810
35,22133	53550
35,23200	52453
35,24267	51538
35,25333	50795
35,26400	50173
35,27467	49638
35,28533	49191
35,29600	48800
35,30667	48449
35,31733	48130
35,32800	47861
35,33867	47646
35,34933	47507
35,36000	47367
35,37067	47142
35,38133	46756
35,39200	46250
35,40267	45778
35,41333	45513
35,42400	45616
35,43467	46309
35,44533	47838
35,45600	50144
35,46667	52590
35,47733	54345
35,48800	54924
35,49867	54516
35,50933	53555
35,52000	52347
35,53067	51027
35,54133	49768
35,55200	48847
35,56267	48545
35,57333	48914
35,58400	49586
35,59467	50001
35,60533	49799
35,61600	49071
35,62667	48149
35,63733	47260
35,64800	46544
35,65867	45960
35,66933	45521
35,68000	45201
35,69067	44973
35,70133	44811
35,71200	44723
35,72267	44683
35,73333	44674
35,74400	44697
35,75467	44728
35,76533	44783
35,77600	44884
35,78667	45072
35,79733	45373
35,80800	45843
35,81867	46437
35,82933	47023
35,84000	47434
35,85067	47591
35,86133	47548
35,87200	47411
35,88267	47229
35,89333	46981
35,90400	46666
35,91467	46304
35,92533	45930
35,93600	45608
35,94667	45343
35,95733	45153
35,96800	45026
35,97867	44962
35,98933	44964
36,00000	45036
36,01067	45143
36,02133	45236
36,03200	45285
36,04267	45276
36,05333	45208
36,06400	45124
36,07467	45039
36,08533	44986
36,09600	44977
36,10667	45006
36,11733	45066
36,12800	45153
36,13867	45276
36,14933	45425
36,16000	45589
36,17067	45764
36,18133	45922
36,19200	46048
36,20267	46157
36,21333	46257
36,22400	46374
36,23467	46484
36,24533	46571
36,25600	46583
36,26667	46540
36,27733	46490
36,28800	46529
36,29867	46719
36,30933	47078
36,32000	47474
36,33067	47731
36,34133	47763
36,35200	47548
36,36267	47203
36,37333	46851
36,38400	46549
36,39467	46319
36,40533	46126
36,41600	45967
36,42667	45840
36,43733	45742
36,44800	45666
36,45867	45611
36,46933	45582
36,48000	45585
36,49067	45593
36,50133	45605
36,51200	45625
36,52267	45645
36,53333	45656
36,54400	45669
36,55467	45669
36,56533	45677
36,57600	45678
36,58667	45689
36,59733	45697
36,60800	45702
36,61867	45704
36,62933	45718
36,64000	45736
36,65067	45761
36,66133	45803
36,67200	45846
36,68267	45898
36,69333	45933
36,70400	45963
36,71467	45976
36,72533	45980
36,73600	45985
36,74667	46021
36,75733	46101
36,76800	46186
36,77867	46245
36,78933	46269
36,80000	46225
36,81067	46133
36,82133	46030
36,83200	45933
36,84267	45850
36,85333	45790
36,86400	45747
36,87467	45713
36,88533	45687
36,89600	45679
36,90667	45670
36,91733	45664
36,92800	45662
36,93867	45658
36,94933	45674
36,96000	45725
36,97067	45814
36,98133	45959
36,99200	46167
37,00267	46410
37,01333	46644
37,02400	46822
37,03467	46913
37,04533	46866
37,05600	46733
37,06667	46525
37,07733	46303
37,08800	46093
37,09867	45923
37,10933	45807
37,12000	45713
37,13067	45649
37,14133	45620
37,15200	45616
37,16267	45630
37,17333	45678
37,18400	45750
37,19467	45847
37,20533	45940
37,21600	46014
37,22667	46038
37,23733	46019
37,24800	45958
37,25867	45866
37,26933	45770
37,28000	45693
37,29067	45632
37,30133	45580
37,31200	45541
37,32267	45520
37,33333	45506
37,34400	45493
37,35467	45481
37,36533	45472
37,37600	45464
37,38667	45481
37,39733	45475
37,40800	45469
37,41867	45472
37,42933	45468
37,44000	45478
37,45067	45481
37,46133	45490
37,47200	45495
37,48267	45503
37,49333	45505
37,50400	45510
37,51467	45515
37,52533	45525
37,53600	45526
37,54667	45521
37,55733	45522
37,56800	45508
37,57867	45510
37,58933	45506
37,60000	45498
37,61067	45497
37,62133	45504
37,63200	45501
37,64267	45499
37,65333	45497
37,66400	45505
37,67467	45499
37,68533	45491
37,69600	45496
37,70667	45511
37,71733	45523
37,72800	45536
37,73867	45554
37,74933	45588
37,76000	45607
37,77067	45624
37,78133	45654
37,79200	45667
37,80267	45677
37,81333	45668
37,82400	45663
37,83467	45644
37,84533	45623
37,85600	45608
37,86667	45594
37,87733	45592
37,88800	45583
37,89867	45569
37,90933	45571
37,92000	45573
37,93067	45577
37,94133	45573
37,95200	45573
37,96267	45568
37,97333	45567
37,98400	45578
37,99467	45576
38,00533	45584
38,01600	45582
38,02667	45582
38,03733	45583
38,04800	45587
38,05867	45588
38,06933	45586
38,08000	45581
38,09067	45588
38,10133	45592
38,11200	45594
38,12267	45594
38,13333	45600
38,14400	45608
38,15467	45598
38,16533	45599
38,17600	45605
38,18667	45618
38,19733	45619
38,20800	45634
38,21867	45643
38,22933	45660
38,24000	45664
38,25067	45674
38,26133	45684
38,27200	45684
38,28267	45685
38,29333	45681
38,30400	45685
38,31467	45682
38,32533	45678
38,33600	45671
38,34667	45662
38,35733	45658
38,36800	45653
38,37867	45656
38,38933	45652
38,40000	45647
38,41067	45653
38,42133	45656
38,43200	45656
38,44267	45655
38,45333	45660
38,46400	45680
38,47467	45673
38,48533	45685
38,49600	45686
38,50667	45695
38,51733	45707
38,52800	45698
38,53867	45703
38,54933	45713
38,56000	45709
38,57067	45720
38,58133	45731
38,59200	45729
38,60267	45738
38,61333	45743
38,62400	45746
38,63467	45763
38,64533	45779
38,65600	45784
38,66667	45799
38,67733	45811
38,68800	45829
38,69867	45841
38,70933	45867
38,72000	45892
38,73067	45920
38,74133	45980
38,75200	46077
38,76267	46249
38,77333	46524
38,78400	46952
38,79467	47625
38,80533	48656
38,81600	50115
38,82667	52139
38,83733	54763
38,84800	58002
38,85867	61706
38,86933	65610
38,88000	69372
38,89067	72497
38,90133	74588
38,91200	75358
38,92267	74673
38,93333	72665
38,94400	69642
38,95467	66038
38,96533	62279
38,97600	58758
38,98667	55683
38,99733	53190
39,00800	51281
39,01867	49883
39,02933	48892
39,04000	48205
39,05067	47736
39,06133	47392
39,07200	47148
39,08267	46968
39,09333	46809
39,10400	46678
39,11467	46559
39,12533	46444
39,13600	46326
39,14667	46207
39,15733	46092
39,16800	45970
39,17867	45852
39,18933	45723
39,20000	45579
39,21067	45427
39,22133	45275
39,23200	45117
39,24267	44945
39,25333	44771
39,26400	44585
39,27467	44390
39,28533	44187
39,29600	43976
39,30667	43757
39,31733	43539
39,32800	43295
39,33867	43047
39,34933	42810
39,36000	42559
39,37067	42308
39,38133	42050
39,39200	41800
39,40267	41552
39,41333	41290
39,42400	41033
39,43467	40796
39,44533	40568
39,45600	40335
39,46667	40089
39,47733	39845
39,48800	39614
39,49867	39346
39,50933	39058
39,52000	38745
39,53067	38405
39,54133	38029
39,55200	37634
39,56267	37227
39,57333	36838
39,58400	36459
39,59467	36080
39,60533	35664
39,61600	35165
39,62667	34570
39,63733	33873
39,64800	33067
39,65867	32134
39,66933	31085
39,68000	29964
39,69067	28796
39,70133	27589
39,71200	26352
39,72267	25101
39,73333	23833
39,74400	22555
39,75467	21282
39,76533	20013
39,77600	18802
39,78667	17644
39,79733	16559
39,80800	15522
39,81867	14566
39,82933	13664
39,84000	12823
39,85067	12037
39,86133	11304
39,87200	10633
39,88267	10022
39,89333	9461
39,90400	8936
39,91467	8469
39,92533	8030
39,93600	7623
39,94667	7249
39,95733	6902
39,96800	6589
39,97867	6301
39,98933	6027
40,00000	5772
40,01067	5529
40,02133	5315
40,03200	5112
40,04267	4931
40,05333	4749
40,06400	4576
40,07467	4412
40,08533	4261
40,09600	4119
40,10667	3976
40,11733	3854
40,12800	3728
40,13867	3603
40,14933	3499
40,16000	3392
40,17067	3287
40,18133	3184
40,19200	3092
40,20267	3011
40,21333	2918
40,22400	2837
40,23467	2755
40,24533	2675
40,25600	2604
40,26667	2545
40,27733	2478
40,28800	2415
40,29867	2348
40,30933	2288
40,32000	2225
40,33067	2175
40,34133	2126
40,35200	2071
40,36267	2016
40,37333	1966
40,38400	1926
40,39467	1889
40,40533	1842
40,41600	1798
40,42667	1759
40,43733	1715
40,44800	1685
40,45867	1642
40,46933	1600
40,48000	1568
40,49067	1539
40,50133	1514
40,51200	1476
40,52267	1438
40,53333	1410
40,54400	1381
40,55467	1356
40,56533	1318
40,57600	1294
40,58667	1270
40,59733	1248
40,60800	1217
40,61867	1186
40,62933	1167
40,64000	1134
40,65067	1106
40,66133	1086
40,67200	1064
40,68267	1031
40,69333	1003
40,70400	978
40,71467	953
40,72533	931
40,73600	910
40,74667	882
40,75733	856
40,76800	832
40,77867	804
40,78933	782
40,80000	763
40,81067	745
40,82133	713
40,83200	689
40,84267	671
40,85333	652
40,86400	629
40,87467	605
40,88533	579
40,89600	563
40,90667	544
40,91733	529
40,92800	523
40,93867	497
40,94933	479
40,96000	461
40,97067	446
40,98133	428
40,99200	422
41,00267	402
41,01333	393
41,02400	376
41,03467	360
41,04533	344
41,05600	345
41,06667	325
41,07733	316
41,08800	308
41,09867	302
41,10933	290
41,12000	283
41,13067	271
41,14133	269
41,15200	245
41,16267	240
41,17333	231
41,18400	216
41,19467	205
41,20533	197
41,21600	190
41,22667	178
41,23733	176
41,24800	171
41,25867	166
41,26933	156
41,28000	151
41,29067	146
41,30133	141
41,31200	137
41,32267	131
41,33333	125
41,34400	113
41,35467	106
41,36533	111
41,37600	104
41,38667	106
41,39733	98
41,40800	98
41,41867	97
41,42933	97
41,44000	96
41,45067	102
41,46133	96
41,47200	97
41,48267	99
41,49333	97
41,50400	105
41,51467	102
41,52533	112
41,53600	112
41,54667	110
41,55733	123
41,56800	119
41,57867	128
41,58933	130
41,60000	142
41,61067	138
41,62133	146
41,63200	156
41,64267	157
41,65333	168
41,66400	176
41,67467	176
41,68533	178
41,69600	180
41,70667	185
41,71733	191
41,72800	192
41,73867	212
41,74933	217
41,76000	224
41,77067	231
41,78133	235
41,79200	246
41,80267	255
41,81333	264
41,82400	263
41,83467	261
41,84533	275
41,85600	284
41,86667	290
41,87733	293
41,88800	296
41,89867	302
41,90933	300
41,92000	317
41,93067	324
41,94133	330
41,95200	330
41,96267	334
41,97333	343
41,98400	345
41,99467	346
42,00533	349
42,01600	352
42,02667	360
42,03733	363
42,04800	368
42,05867	374
42,06933	380
42,08000	388
42,09067	388
42,10133	397
42,11200	394
42,12267	395
42,13333	396
42,14400	405
42,15467	413
42,16533	414
42,17600	409
42,18667	409
42,19733	412
42,20800	409
42,21867	409
42,22933	419
42,24000	416
42,25067	412
42,26133	424
42,27200	424
42,28267	417
42,29333	421
42,30400	422
42,31467	422
42,32533	414
42,33600	422
42,34667	427
42,35733	424
42,36800	430
42,37867	426
42,38933	429
42,40000	420
42,41067	429
42,42133	430
42,43200	430
42,44267	427
42,45333	430
42,46400	423
42,47467	429
42,48533	431
42,49600	421
42,50667	429
42,51733	428
42,52800	428
42,53867	429
42,54933	428
42,56000	431
42,57067	431
42,58133	427
42,59200	425
42,60267	432
42,61333	437
42,62400	434
42,63467	427
42,64533	429
42,65600	436
42,66667	437
42,67733	436
42,68800	446
42,69867	441
42,70933	436
42,72000	430
42,73067	429
42,74133	434
42,75200	434
42,76267	435
42,77333	428
42,78400	435
42,79467	433
42,80533	426
42,81600	431
42,82667	435
42,83733	431
42,84800	430
42,85867	425
42,86933	428
42,88000	429
42,89067	425
42,90133	431
42,91200	428
42,92267	425
42,93333	429
42,94400	432
42,95467	429
42,96533	427
42,97600	431
42,98667	426
42,99733	428
43,00800	433
43,01867	432
43,02933	436
43,04000	436
43,05067	435
43,06133	433
43,07200	430
43,08267	433
43,09333	429
43,10400	431
43,11467	424
43,12533	423
43,13600	433
43,14667	428
43,15733	432
43,16800	429
43,17867	435
43,18933	437
43,20000	436
43,21067	430
43,22133	432
43,23200	431
43,24267	427
43,25333	428
43,26400	427
43,27467	432
43,28533	441
43,29600	433
43,30667	433
43,31733	438
43,32800	431
43,33867	430
43,34933	435
43,36000	432
43,37067	433
43,38133	430
43,39200	428
43,40267	432
43,41333	435
43,42400	433
43,43467	429
43,44533	428
43,45600	427
43,46667	425
43,47733	424
43,48800	431
43,49867	424
43,50933	425
43,52000	425
43,53067	421
43,54133	421
43,55200	423
43,56267	429
43,57333	428
43,58400	433
43,59467	427
43,60533	417
43,61600	423
43,62667	414
43,63733	423
43,64800	426
43,65867	428
43,66933	426
43,68000	427
43,69067	421
43,70133	419
43,71200	426
43,72267	430
43,73333	424
43,74400	420
43,75467	421
43,76533	417
43,77600	417
43,78667	423
43,79733	421
43,80800	422
43,81867	419
43,82933	421
43,84000	424
43,85067	422
43,86133	426
43,87200	428
43,88267	423
43,89333	420
43,90400	420
43,91467	420
43,92533	416
43,93600	415
43,94667	422
43,95733	423
43,96800	420
43,97867	425
43,98933	422
44,00000	420
44,01067	424
44,02133	425
44,03200	423
44,04267	416
44,05333	416
44,06400	411
44,07467	413
44,08533	413
44,09600	412
44,10667	412
44,11733	408
44,12800	407
44,13867	409
44,14933	403
44,16000	410
44,17067	410
44,18133	414
44,19200	405
44,20267	403
44,21333	405
44,22400	412
44,23467	407
44,24533	403
44,25600	410
44,26667	404
44,27733	407
44,28800	410
44,29867	412
44,30933	410
44,32000	406
44,33067	407
44,34133	403
44,35200	402
44,36267	407
44,37333	409
44,38400	409
44,39467	402
44,40533	404
44,41600	406
44,42667	406
44,43733	404
44,44800	398
44,45867	403
44,46933	402
44,48000	402
44,49067	403
44,50133	401
44,51200	411
44,52267	409
44,53333	397
44,54400	402
44,55467	408
44,56533	407
44,57600	406
44,58667	405
44,59733	404
44,60800	411
44,61867	402
44,62933	404
44,64000	399
44,65067	400
44,66133	402
44,67200	410
44,68267	404
44,69333	407
44,70400	401
44,71467	411
44,72533	402
44,73600	404
44,74667	405
44,75733	410
44,76800	410
44,77867	406
44,78933	401
44,80000	403
44,81067	400
44,82133	396
44,83200	401
44,84267	399
44,85333	410
44,86400	401
44,87467	403
44,88533	401
44,89600	404
44,90667	395
44,91733	390
44,92800	397
44,93867	402
44,94933	398
44,96000	405
44,97067	403
44,98133	391
44,99200	392
45,00267	394
45,01333	395
45,02400	403
45,03467	400
45,04533	404
45,05600	399
45,06667	402
45,07733	403
45,08800	409
45,09867	404
45,10933	401
45,12000	407
45,13067	408
45,14133	400
45,15200	402
45,16267	397
45,17333	399
45,18400	397
45,19467	398
45,20533	393
45,21600	396
45,22667	390
45,23733	392
45,24800	407
45,25867	408
45,26933	403
45,28000	404
45,29067	405
45,30133	398
45,31200	403
45,32267	404
45,33333	400
45,34400	391
45,35467	401
45,36533	400
45,37600	399
45,38667	395
45,39733	395
45,40800	399
45,41867	402
45,42933	400
45,44000	398
45,45067	399
45,46133	400
45,47200	400
45,48267	406
45,49333	408
45,50400	406
45,51467	398
45,52533	400
45,53600	398
45,54667	395
45,55733	402
45,56800	402
45,57867	402
45,58933	399
45,60000	390
45,61067	393
45,62133	394
45,63200	392
45,64267	388
45,65333	391
45,66400	395
45,67467	399
45,68533	393
45,69600	396
45,70667	397
45,71733	401
45,72800	400
45,73867	394
45,74933	391
45,76000	397
45,77067	394
45,78133	396
45,79200	401
45,80267	396
45,81333	397
45,82400	392
45,83467	393
45,84533	391
45,85600	391
45,86667	396
45,87733	398
45,88800	397
45,89867	393
45,90933	392
45,92000	394
45,93067	395
45,94133	396
45,95200	391
45,96267	394
45,97333	395
45,98400	396
45,99467	397
46,00533	384
46,01600	385
46,02667	389
46,03733	381
46,04800	386
46,05867	387
46,06933	391
46,08000	397
46,09067	393
46,10133	394
46,11200	397
46,12267	394
46,13333	394
46,14400	393
46,15467	387
46,16533	375
46,17600	390
46,18667	390
46,19733	388
46,20800	383
46,21867	391
46,22933	386
46,24000	393
46,25067	391
46,26133	395
46,27200	394
46,28267	393
46,29333	404
46,30400	399
46,31467	394
46,32533	394
46,33600	391
46,34667	387
46,35733	383
46,36800	388
46,37867	385
46,38933	387
46,40000	390
46,41067	386
46,42133	388
46,43200	388
46,44267	384
46,45333	386
46,46400	391
46,47467	379
46,48533	381
46,49600	381
46,50667	381
46,51733	379
46,52800	381
46,53867	379
46,54933	376
46,56000	380
46,57067	376
46,58133	377
46,59200	381
46,60267	386
46,61333	381
46,62400	376
46,63467	374
46,64533	381
46,65600	385
46,66667	376
46,67733	379
46,68800	375
46,69867	376
46,70933	377
46,72000	381
46,73067	386
46,74133	379
46,75200	374
46,76267	381
46,77333	385
46,78400	381
46,79467	378
46,80533	380
46,81600	384
46,82667	387
46,83733	382
46,84800	376
46,85867	375
46,86933	376
46,88000	379
46,89067	385
46,90133	377
46,91200	378
46,92267	381
46,93333	383
46,94400	380
46,95467	383
46,96533	386
46,97600	388
46,98667	383
46,99733	384
47,00800	384
47,01867	390
47,02933	386
47,04000	391
47,05067	381
47,06133	377
47,07200	382
47,08267	383
47,09333	367
47,10400	369
47,11467	371
47,12533	369
47,13600	374
47,14667	377
47,15733	382
47,16800	381
47,17867	381
47,18933	375
47,20000	383
47,21067	385
47,22133	379
47,23200	379
47,24267	384
47,25333	377
47,26400	376
47,27467	378
47,28533	373
47,29600	376
47,30667	376
47,31733	372
47,32800	371
47,33867	372
47,34933	376
47,36000	374
47,37067	378
47,38133	375
47,39200	372
47,40267	373
47,41333	379
47,42400	380
47,43467	380
47,44533	380
47,45600	379
47,46667	376
47,47733	373
47,48800	368
47,49867	370
47,50933	375
47,52000	367
47,53067	366
47,54133	362
47,55200	370
47,56267	379
47,57333	381
47,58400	375
47,59467	378
47,60533	372
47,61600	374
47,62667	377
47,63733	366
47,64800	362
47,65867	366
47,66933	364
47,68000	365
47,69067	366
47,70133	365
47,71200	363
47,72267	355
47,73333	361
47,74400	361
47,75467	353
47,76533	355
47,77600	360
47,78667	358
47,79733	362
47,80800	366
47,81867	364
47,82933	366
47,84000	365
47,85067	364
47,86133	360
47,87200	369
47,88267	360
47,89333	359
47,90400	368
47,91467	367
47,92533	366
47,93600	367
47,94667	360
47,95733	360
47,96800	365
47,97867	362
47,98933	355
48,00000	350
48,01067	356
48,02133	359
48,03200	352
48,04267	358
48,05333	355
48,06400	354
48,07467	360
48,08533	360
48,09600	361
48,10667	353
48,11733	351
48,12800	351
48,13867	357
48,14933	354
48,16000	351
48,17067	360
48,18133	361
48,19200	362
48,20267	360
48,21333	357
48,22400	363
48,23467	353
48,24533	351
48,25600	350
48,26667	353
48,27733	358
48,28800	356
48,29867	352
48,30933	349
48,32000	348
48,33067	351
48,34133	350
48,35200	352
48,36267	358
48,37333	356
48,38400	356
48,39467	350
48,40533	356
48,41600	357
48,42667	344
48,43733	342
48,44800	350
48,45867	346
48,46933	348
48,48000	349
48,49067	349
48,50133	349
48,51200	351
48,52267	346
48,53333	352
48,54400	354
48,55467	355
48,56533	353
48,57600	352
48,58667	349
48,59733	346
48,60800	349
48,61867	344
48,62933	342
48,64000	338
48,65067	343
48,66133	337
48,67200	341
48,68267	347
48,69333	342
48,70400	339
48,71467	339
48,72533	341
48,73600	343
48,74667	347
48,75733	348
48,76800	344
48,77867	341
48,78933	335
48,80000	334
48,81067	338
48,82133	337
48,83200	338
48,84267	339
48,85333	334
48,86400	334
48,87467	341
48,88533	331
48,89600	337
48,90667	334
48,91733	337
48,92800	332
48,93867	328
48,94933	328
48,96000	323
48,97067	330
48,98133	328
48,99200	331
49,00267	339
49,01333	340
49,02400	335
49,03467	335
49,04533	331
49,05600	330
49,06667	324
49,07733	333
49,08800	331
49,09867	331
49,10933	323
49,12000	328
49,13067	329
49,14133	325
49,15200	332
49,16267	337
49,17333	332
49,18400	328
49,19467	329
49,20533	330
49,21600	332
49,22667	326
49,23733	323
49,24800	332
49,25867	319
49,26933	312
49,28000	314
49,29067	319
49,30133	328
49,31200	331
49,32267	325
49,33333	324
49,34400	321
49,35467	321
49,36533	324
49,37600	329
49,38667	323
49,39733	328
49,40800	330
49,41867	329
49,42933	327
49,44000	327
49,45067	326
49,46133	329
49,47200	329
49,48267	328
49,49333	325
49,50400	323
49,51467	324
49,52533	322
49,53600	317
49,54667	323
49,55733	321
49,56800	325
49,57867	324
49,58933	317
49,60000	329
49,61067	332
49,62133	326
49,63200	325
49,64267	324
49,65333	329
49,66400	328
49,67467	326
49,68533	322
49,69600	326
49,70667	324
49,71733	313
49,72800	316
49,73867	327
49,74933	325
49,76000	321
49,77067	313
49,78133	312
49,79200	318
49,80267	318
49,81333	317
49,82400	316
49,83467	308
49,84533	310
49,85600	315
49,86667	314
49,87733	309
49,88800	305
49,89867	310
49,90933	311
49,92000	313
49,93067	315
49,94133	316
49,95200	309
49,96267	303
49,97333	299
49,98400	305
49,99467	303
50,00533	300
50,01600	302


